timestamp,emg1,emg2,emg3,emg4,emg5,emg6,emg7,emg8
1523946830545441,1,20,38,35,35,10,15,9
1523946830545441,-1,-18,-22,-31,-15,-7,-12,-5
1523946830546445,0,-8,-24,-8,-16,5,-7,-9
1523946830546445,-2,12,19,12,16,21,10,7
1523946830547448,-1,-5,0,-8,23,12,1,2
1523946830547448,-4,-10,-23,-20,-45,-23,-14,-10
1523946830548449,2,10,18,20,11,-2,7,8
1523946830548449,0,5,18,10,35,-7,5,4
1523946830559477,-3,-15,-26,-22,-20,4,-8,-9
1523946830559477,1,10,11,24,10,17,8,0
1523946830567501,-2,7,17,3,-11,0,4,1
1523946830567501,0,-13,-24,-24,-30,-19,-12,-7
1523946830573516,0,-6,-14,-2,-5,-2,-4,-5
1523946830573516,2,8,17,7,27,3,7,4
1523946830588560,1,-6,-4,-7,-7,-10,-2,1
1523946830588560,-2,-10,-18,-13,-28,4,-10,-8
1523946830597581,1,7,8,4,2,-12,4,4
1523946830597581,0,6,12,11,18,14,3,0
1523946830603595,-5,-9,-17,-17,-27,-6,-6,-6
1523946830603595,-3,2,2,13,19,-3,-3,-4
1523946830619637,-2,1,6,4,2,2,8,2
1523946830619637,-3,-7,-10,-11,-19,-11,-8,-5
1523946830626656,0,0,-1,4,15,18,1,2
1523946830626656,3,3,10,6,3,11,4,2
1523946830666763,-4,-12,-12,-26,-7,-16,-11,-5
1523946830666763,1,-20,-43,-30,-40,1,-11,-9
1523946830667765,0,12,20,16,3,-25,2,3
1523946830667765,1,2,13,-5,7,21,8,5
1523946830668768,-2,-11,-25,-3,-20,-23,-15,-10
1523946830668768,-2,9,16,16,11,-3,7,-2
1523946830670773,-2,10,25,18,71,28,17,9
1523946830670773,-1,-12,-28,-19,-68,3,-16,-9
1523946830678796,-1,1,-1,6,32,-6,-3,-1
1523946830678796,0,10,19,9,13,-2,5,5
1523946830685822,-2,-12,-21,-23,-37,-11,-14,-6
1523946830685822,-4,-10,-20,-13,-12,-11,-8,-8
1523946830693835,2,12,19,19,15,34,20,11
1523946830693835,-2,0,4,-3,-10,-26,-6,-1
1523946830707872,-4,-12,-20,-18,-21,21,-9,-7
1523946830707872,4,12,12,15,11,-2,4,2
1523946830716898,-2,4,12,12,29,0,4,3
1523946830716898,-1,-9,-14,-12,6,6,-2,-4
1523946830722912,-1,-1,-4,0,-49,-16,-4,-3
1523946830722912,-1,3,14,15,39,10,5,2
1523946830738957,-2,-7,-15,-12,-24,2,-7,-3
1523946830738957,-1,-5,-8,-7,-10,-13,-7,-3
1523946830745974,0,5,9,2,-2,-10,0,-1
1523946830745974,-3,-4,-3,-4,11,20,8,2
1523946830752994,1,-5,-8,-5,-5,-10,-6,-2
1523946830752994,-1,2,2,1,-14,-2,-2,2
1523946830768036,-1,-2,-3,5,17,13,2,-1
1523946830768036,-3,-6,-11,-6,-9,-38,-11,-7
1523946830776053,0,7,11,10,-11,30,12,5
1523946830776053,0,0,4,10,26,1,-3,0
1523946830783074,-2,-8,-16,-8,5,2,2,1
1523946830783074,0,-4,-5,-5,-47,-9,-10,-4
1523946830799117,-5,-4,-4,-1,18,-5,6,-2
1523946830799117,0,-2,-3,-7,-11,4,-2,1
1523946830806135,4,-5,-6,-1,0,-1,-3,-2
1523946830806135,-2,-2,0,-4,19,6,4,0
1523946830813152,-2,4,2,-3,-19,-15,-8,-1
1523946830813152,-1,-2,1,-1,-6,8,0,-1
1523946830828193,-1,0,3,5,13,-3,-1,-1
1523946830828193,0,2,4,4,7,4,7,4
1523946830836214,-2,-5,-9,-7,-19,-6,-10,-9
1523946830836214,0,1,-2,4,5,2,2,4
1523946830843233,-2,-3,-3,-6,-3,0,-1,0
1523946830843233,-4,-8,-7,-4,-5,-10,-8,-4
1523946830859274,3,3,5,-1,-12,-9,2,0
1523946830859274,-1,2,9,11,50,26,4,2
1523946830866293,-3,-6,-10,-9,-36,-11,-8,2
1523946830866293,-1,1,-5,-2,6,-8,-2,1
1523946830873312,1,2,6,1,-2,3,0,-10
1523946830873312,1,0,2,-1,-18,-5,5,1
1523946830888355,-2,-7,-9,-1,-9,-3,-5,-6
1523946830888355,-2,-1,4,5,1,-5,-2,2
1523946830896389,1,1,2,-1,18,9,0,5
1523946830896389,-2,-8,-12,-5,-12,-7,-5,-8
1523946830903393,-2,-1,-1,-10,-21,-12,-3,-2
1523946830903393,0,1,-3,2,-1,-5,4,0
1523946830918435,-1,-3,-2,3,6,-2,-9,-4
1523946830918435,-1,-3,-1,-6,-9,-3,4,1
1523946830927455,0,5,4,-2,-10,-11,-2,2
1523946830927455,-1,0,3,6,13,1,-6,-4
1523946830933472,2,-2,-5,-7,13,2,0,3
1523946830933472,-2,0,1,0,-36,5,2,-21
1523946830948512,2,-3,-4,2,21,-9,-2,11
1523946830948512,0,-5,-6,-9,2,5,-6,-6
1523946830956533,-3,0,0,4,-21,-5,4,4
1523946830956533,-1,-4,-10,-6,16,2,-6,-2
1523946830970576,-1,-4,-5,-8,-11,-5,-2,-9
1523946830970576,-1,-1,2,1,-7,-2,4,-2
1523946830979595,2,0,5,9,23,5,4,3
1523946830979595,0,1,3,4,4,-12,-2,3
1523946830985618,-4,-1,-7,-3,-28,4,-1,-7
1523946830985618,0,1,3,1,-4,-52,2,3
1523946830993633,-2,-2,-2,-1,25,85,5,1
1523946830993633,-3,-8,-14,-7,-15,-27,-6,-3
1523946831008672,1,2,5,5,-3,-16,-11,0
1523946831008672,0,0,3,-2,22,8,14,3
1523946831016694,0,-8,-11,-12,-34,14,-4,-3
1523946831016694,-2,-2,0,6,13,13,1,0
1523946831030732,-3,-1,1,0,-12,-2,0,-5
1523946831030732,-1,3,3,5,-1,3,-3,0
1523946831038752,-2,-2,-1,-1,-10,-45,-2,1
1523946831038752,-2,0,-2,6,33,35,6,4
1523946831045772,-1,-4,-7,-1,0,3,-1,-5
1523946831045772,0,-1,-4,-2,-11,4,-8,-2
1523946831053791,1,0,1,2,16,-10,4,3
1523946831053791,2,-1,-1,-7,-38,-10,-4,5
1523946831068838,1,-1,-2,-2,0,-9,-5,-3
1523946831068838,-2,-2,-2,-1,13,30,9,1
1523946831076854,-6,-4,-7,1,-13,-10,-8,-9
1523946831076854,0,3,1,-2,-18,-33,-4,-4
1523946831090890,0,-2,-1,0,8,24,4,0
1523946831090890,2,0,-2,1,-15,-5,-4,0
1523946831098912,-4,-1,-1,-4,-7,-28,-5,-5
1523946831098912,1,-1,1,-2,9,42,6,4
1523946831105931,0,-4,-2,6,27,-9,-8,-1
1523946831105931,-1,-4,-5,-7,-22,-7,2,-4
1523946831112954,1,1,1,-4,19,1,-3,4
1523946831112954,-4,-3,-5,3,-17,-3,-4,-4
1523946831127991,-2,-3,-5,-6,-10,-15,-2,1
1523946831127991,-2,0,-3,-4,3,-40,-9,-5
1523946831137013,3,1,4,10,-5,31,2,3
1523946831137013,1,-2,-3,1,2,-26,-6,3
1523946831151056,1,1,2,-6,-18,-10,5,-2
1523946831151056,2,-2,-4,2,21,62,4,2
1523946831159073,-3,-3,-1,-9,-8,-10,3,-4
1523946831159073,0,-1,-1,3,19,5,-3,4
1523946831166091,0,-6,-12,-3,-2,2,-1,-4
1523946831166091,-2,0,-3,-7,-21,1,-2,-1
1523946831173109,-2,-1,-2,-1,-26,-15,-1,1
1523946831173109,-4,-3,5,0,7,-18,-9,-4
1523946831188151,-1,-3,-6,1,10,13,4,0
1523946831188151,-3,-2,-2,-8,-1,-8,-5,-2
1523946831196175,3,4,5,13,11,5,4,1
1523946831196175,-4,-5,-9,-11,-44,-20,-7,-7
1523946831211211,2,8,10,3,19,29,13,5
1523946831211211,2,-3,-6,3,0,-23,-5,1
1523946831219234,-3,-9,-11,-8,6,14,-9,-5
1523946831219234,-2,2,1,2,6,-8,1,-4
1523946831226249,1,-1,4,7,3,4,1,6
1523946831226249,-2,0,-2,-10,-14,6,3,1
1523946831233271,3,1,3,0,-31,-19,4,1
1523946831233271,-2,2,1,5,21,1,-1,1
1523946831248310,-3,-1,0,-4,-11,-5,-8,-7
1523946831248310,-4,-5,-8,4,7,0,-5,-13
1523946831256331,-2,-2,0,1,2,-5,-2,1
1523946831256331,2,-1,-2,-5,-2,2,0,1
1523946831271371,0,-5,-9,-7,9,3,-3,1
1523946831271371,-3,0,4,0,-25,6,5,1
1523946831279406,-3,-1,-2,-1,-9,-35,-8,-7
1523946831279406,0,2,8,3,38,62,17,3
1523946831286416,1,-3,-6,1,-7,-22,-11,0
1523946831286416,0,-1,4,7,19,-10,-2,-3
1523946831301455,1,-1,-3,-9,-34,2,-2,-3
1523946831301455,-6,-2,-3,-1,-18,-52,-7,-3
1523946831308468,2,2,7,4,34,54,7,4
1523946831308468,0,-1,-8,-2,5,7,-4,4
1523946831316491,-2,-4,-4,-6,-16,-16,-7,2
1523946831316491,0,-3,-7,-5,-35,-7,1,1
1523946831330530,-1,0,6,1,2,-2,0,-6
1523946831330530,1,-7,-9,-8,-17,-10,-3,15
1523946831339553,-2,1,-2,-1,26,3,0,-8
1523946831339553,2,2,-2,4,0,5,-6,-6
1523946831345568,-11,-3,1,1,-31,-8,0,-1
1523946831345568,-5,-5,-1,8,18,-2,-5,-13
1523946831361610,0,-3,-13,-6,-10,-23,-10,0
1523946831361610,0,3,9,8,12,58,21,3
1523946831368639,-1,-6,-13,-5,-4,-22,-14,-16
1523946831368639,-1,-1,1,0,-21,-19,-5,7
1523946831376650,-3,3,11,10,37,85,13,5
1523946831376650,3,-2,-2,-9,7,-15,-6,-10
1523946831390688,0,-1,-1,0,-8,1,12,2
1523946831390688,-1,2,3,-12,-14,17,-4,-7
1523946831398709,2,1,0,8,11,-23,0,3
1523946831398709,0,-10,-9,-4,-13,-3,-7,1
1523946831405729,-5,1,1,-6,6,-7,-3,-2
1523946831405729,0,-3,-6,0,-23,-4,0,-2
1523946831421772,-2,-9,-16,-23,-39,-26,-3,-7
1523946831421772,-4,-3,-1,5,31,-13,1,-11
1523946831428790,5,1,1,-2,5,43,8,15
1523946831428790,-2,-4,-7,-6,0,-9,-4,-2
1523946831436810,-5,-2,1,-5,-15,-19,-7,-5
1523946831436810,-2,1,-1,5,-21,-25,-4,1
1523946831450849,-1,-2,0,-6,42,-19,3,3
1523946831450849,4,-5,-12,1,-5,8,2,1
1523946831458869,-2,1,5,0,-2,-5,-6,-6
1523946831458869,1,-2,4,-6,-25,-15,-4,7
1523946831465888,-7,0,-12,-11,-11,1,-2,-11
1523946831465888,6,3,6,8,7,15,7,8
1523946831481929,0,-1,9,-10,-11,-25,-3,-4
1523946831481929,-2,-1,-3,-7,0,10,-2,0
1523946831487947,-3,-8,-8,-7,-22,-5,0,-4
1523946831487947,-7,-5,-7,7,32,-7,-10,-7
1523946831496974,3,0,0,7,-25,12,6,2
1523946831496974,1,-3,-7,-3,14,-1,-7,3
1523946831511011,-4,-2,-2,3,-18,-9,-8,-12
1523946831511011,-1,6,7,-4,-7,-4,7,10
1523946831519030,-3,-6,-12,-1,25,22,-1,-10
1523946831519030,-5,-4,-12,-9,-17,-4,-2,0
1523946831526051,2,1,9,13,0,-7,-1,6
1523946831526051,-4,1,0,-6,-9,-10,-4,-12
1523946831541087,0,1,7,-4,-6,0,1,8
1523946831541087,-2,-3,-7,-1,7,7,2,0
1523946831548107,1,-1,-5,-6,-10,-11,-5,0
1523946831548107,2,0,7,7,-12,16,0,2
1523946831556127,0,-3,-10,-8,20,-12,-1,-1
1523946831556127,-5,-6,-5,19,35,9,-3,-5
1523946831571171,1,-3,-6,-19,-44,-2,-2,0
1523946831571171,1,3,4,25,44,-2,-2,-1
1523946831579198,-2,-3,-7,-27,-17,-6,-3,0
1523946831579198,1,6,12,7,-6,2,1,-1
1523946831586209,-2,-4,-9,-35,-38,-7,-9,1
1523946831586209,-6,-4,-3,4,32,6,3,-20
1523946831601251,-1,-4,1,27,1,-13,-2,15
1523946831601251,0,2,3,-3,-10,1,1,1
1523946831608266,6,5,-6,13,29,19,8,5
1523946831608266,-3,1,10,-6,-28,-4,-5,-1
1523946831616288,-2,-7,-12,-17,19,-10,-15,-14
1523946831616288,-1,4,3,5,-50,1,19,-2
1523946831631328,-5,-3,4,26,30,-13,-3,-26
1523946831631328,1,-9,-14,-23,-1,-1,-9,15
1523946831639349,4,4,0,20,16,6,11,6
1523946831639349,-1,3,0,-13,-5,-3,-7,3
1523946831653389,0,2,11,9,28,5,1,-7
1523946831653389,-1,-5,-4,2,-29,-8,-7,-7
1523946831661408,-6,0,1,9,16,1,-5,-8
1523946831661408,-5,-8,-11,-12,-7,4,-1,-7
1523946831677450,1,0,-2,4,10,-4,-4,6
1523946831677450,2,2,-1,-16,3,1,2,5
1523946831684471,-3,-7,-10,-2,-56,-10,-8,0
1523946831684471,-1,-4,-3,4,-6,1,-2,-9
1523946831690486,-2,-4,-4,10,20,2,1,8
1523946831690486,-1,0,2,-6,-9,-4,-3,-5
1523946831699509,7,4,1,-2,0,-1,3,3
1523946831699509,-3,-2,3,-12,-28,-19,-13,-3
1523946831713545,-4,5,11,4,20,16,18,-2
1523946831713545,2,-2,-4,2,-10,23,-6,11
1523946831721567,-8,-8,-11,7,65,-29,0,-9
1523946831721567,3,5,6,7,3,47,6,8
1523946831736606,0,1,-4,-7,-11,8,-5,6
1523946831736606,5,5,2,-3,-21,-3,10,1
1523946831737609,-3,-2,-4,1,-13,-3,-4,-2
1523946831737609,-4,-4,-1,4,22,-13,-8,-7
1523946831750646,2,-5,-3,-1,-11,-8,-3,2
1523946831750646,2,1,4,-2,-1,0,8,7
1523946831758666,-3,-2,4,-10,-5,13,-5,-7
1523946831758666,0,0,-2,1,20,-9,-1,-1
1523946831773707,-1,-7,-10,14,5,9,2,5
1523946831773707,-4,-1,1,-3,1,-12,-5,-9
1523946831781727,2,4,-5,-16,-30,6,3,5
1523946831781727,-1,-2,8,13,6,-18,-12,1
1523946831796772,-2,-8,-11,-2,22,-5,0,-5
1523946831796772,-3,-6,-11,-2,-16,2,2,-1
1523946831797771,1,1,5,2,8,15,5,0
1523946831797771,0,-4,-12,-16,-9,-18,-7,-2
1523946831810807,-1,4,15,3,-24,12,0,0
1523946831810807,-3,-2,-5,-1,14,-1,0,-6
1523946831818825,-4,-3,-4,2,9,-23,-9,-3
1523946831818825,2,0,4,12,-31,28,3,4
1523946831833866,2,3,1,3,-13,-23,-5,0
1523946831833866,-2,-4,-10,-16,13,-1,-8,-6
1523946831841889,-2,-4,-5,-8,-47,1,-4,-4
1523946831841889,0,6,8,13,30,-21,10,11
1523946831856925,-3,-5,-4,-15,18,13,-12,-4
1523946831856925,-5,-5,-10,8,-17,-17,-3,-6
1523946831856925,0,1,3,1,-17,0,-3,0
1523946831856925,-2,-8,-9,-23,-3,-14,-5,-4
1523946831870972,0,0,-10,-9,-47,-8,4,-1
1523946831870972,-2,-2,-1,18,46,1,-4,-2
1523946831879001,-1,-4,-2,-4,-23,8,3,-1
1523946831879001,4,1,-3,-3,18,1,-7,-2
1523946831893023,-2,-4,-11,-14,-4,-14,1,-2
1523946831893023,1,4,6,24,-5,6,-1,2
1523946831902048,0,4,5,-5,9,13,6,2
1523946831902048,-2,-3,-2,5,-8,11,-1,-1
1523946831916084,-1,0,5,2,-10,-9,-4,-2
1523946831916084,-2,-4,-6,-2,-24,-19,-4,-4
1523946831917091,-4,-3,2,13,-7,-24,-4,-5
1523946831917091,5,12,5,-7,66,77,18,14
1523946831931124,4,-8,-4,3,-29,1,-18,-4
1523946831931124,-3,-8,-17,-23,-1,-13,-4,-4
1523946831939145,-1,1,-2,12,-14,-11,-5,-1
1523946831939145,-5,-12,-22,-16,-42,-41,-7,-7
1523946831953183,-2,4,11,0,13,14,6,-1
1523946831953183,1,1,4,1,-7,13,0,0
1523946831962219,2,1,1,-16,3,7,7,2
1523946831962219,-1,2,4,36,11,-4,0,-2
1523946831976246,-3,-3,-11,-18,-2,1,-5,-1
1523946831976246,-2,-3,4,-5,-15,-9,-5,-3
1523946831977247,0,-3,-6,-16,-2,11,7,3
1523946831977247,0,-6,4,11,-44,-30,-9,-4
1523946831991283,-2,-3,-4,11,24,-12,-2,-4
1523946831991283,-3,-2,-1,-7,-5,4,-1,-6
1523946831999308,10,6,7,2,42,47,9,13
1523946831999308,-3,-4,-11,-13,-21,-5,-1,-3
1523946832013347,-5,-4,-2,4,-24,-18,2,-2
1523946832013347,-3,6,12,-2,13,19,1,0
1523946832021367,-3,-14,-18,9,-2,1,3,-4
1523946832021367,0,4,10,-9,-7,-20,-9,-1
1523946832036404,3,8,7,7,9,9,2,1
1523946832036404,-3,-9,-9,-12,-43,-1,-2,-2
1523946832037407,-1,-6,2,9,24,-2,-3,-1
1523946832037407,-3,-7,-26,-13,12,2,1,-3
1523946832051452,1,5,5,2,-7,-14,-1,0
1523946832051452,-4,4,4,-15,-21,-10,-7,-6
1523946832059465,3,5,12,18,7,3,4,3
1523946832059465,-2,-7,-13,-14,23,-19,1,-4
1523946832073503,-2,-11,-19,-1,-3,-16,-5,-3
1523946832073503,-1,3,-1,-3,-19,-27,-5,0
1523946832081525,-2,6,10,1,-4,30,1,1
1523946832081525,3,-3,-3,-5,1,-4,6,3
1523946832096567,-2,-7,-8,10,18,-2,-13,-6
1523946832096567,2,4,13,6,1,24,10,2
1523946832097567,-4,-6,-7,-20,-16,-32,-11,-8
1523946832097567,0,-1,-18,-7,-27,7,-1,1
1523946832110602,-2,-2,3,-5,-7,-5,-2,1
1523946832110602,-1,-1,5,7,26,-2,4,-2
1523946832118622,-4,-5,-16,-5,-35,1,-4,-3
1523946832118622,-1,-11,-20,1,35,5,-4,-4
1523946832133664,0,15,32,-24,-8,6,2,0
1523946832133664,-1,-7,-7,-1,4,-2,-3,2
1523946832141692,2,-1,-8,-5,-6,-8,-3,-4
1523946832141692,-3,-4,-6,0,-14,-2,1,0
1523946832156724,4,-2,-6,10,-10,-36,4,1
1523946832156724,-1,1,3,17,58,108,26,1
1523946832157727,-3,0,5,-10,16,-34,-11,-4
1523946832157727,-3,-2,1,18,-15,-10,-3,-3
1523946832170765,2,0,-8,-22,-15,-2,-1,0
1523946832170765,-1,6,0,7,-6,-7,0,0
1523946832178786,-3,-4,5,-1,7,7,2,-2
1523946832178786,-3,-2,2,-12,-25,-4,-8,-6
1523946832193822,-5,-11,-17,-3,-11,0,1,0
1523946832193822,6,3,5,-6,0,-23,-6,5
1523946832202848,-3,-5,-17,10,13,2,-3,-4
1523946832202848,-1,2,12,-43,-28,-3,-3,-1
1523946832215881,-2,3,12,33,23,20,3,-1
1523946832215881,-3,-4,7,18,-12,-27,-1,1
1523946832224905,3,1,-14,-1,-2,0,3,2
1523946832224905,-1,2,15,6,26,9,-1,0
1523946832230922,0,0,1,0,3,7,0,0
1523946832230922,0,-9,-25,-15,-14,-32,-13,-8
1523946832239945,-2,4,9,2,-6,-27,2,-1
1523946832239945,2,-2,-2,2,7,56,12,6
1523946832253986,-1,-1,-12,-13,-9,11,-2,-2
1523946832253986,-1,-1,-17,-10,-30,-21,-5,-2
1523946832262008,1,2,24,23,32,1,-1,1
1523946832262008,-1,-4,-14,-1,0,-18,-3,-2
1523946832276041,0,0,-8,2,-2,10,1,1
1523946832276041,-2,-3,-4,-31,-34,-36,-12,-4
1523946832286070,-1,8,11,15,-19,7,11,5
1523946832286070,0,-5,12,24,55,24,4,3
1523946832291081,-2,-6,-16,-14,-37,-33,-8,-3
1523946832291081,-2,1,-6,2,15,-5,5,0
1523946832300106,-6,-12,-21,-33,-29,-32,-15,-8
1523946832300106,1,2,5,10,-7,-18,-6,1
1523946832313143,1,3,14,-7,17,3,-2,0
1523946832313143,1,-3,-7,14,-10,2,0,-1
1523946832322164,-5,-2,-8,-2,17,-12,-7,-3
1523946832322164,0,8,9,-2,-15,21,5,-1
1523946832336202,0,-4,1,6,-1,-1,-4,2
1523946832336202,-1,-10,-9,1,6,4,3,-1
1523946832346231,0,-4,12,-12,12,31,3,4
1523946832346231,4,10,10,16,-9,-11,-4,-8
1523946832351250,-2,-4,-7,1,-27,-49,-3,-2
1523946832351250,1,6,8,5,61,88,14,11
1523946832360268,-1,4,19,30,-10,-2,-2,3
1523946832360268,-3,-11,-9,4,51,-7,2,-2
1523946832373299,0,0,-15,-29,-50,-10,-9,-7
1523946832373299,-1,-2,-2,-2,5,-22,0,0
1523946832382324,-1,2,9,-3,-4,19,5,0
1523946832382324,1,6,8,-6,-5,3,-4,-2
1523946832396364,-3,-6,-9,0,-30,-28,9,-1
1523946832396364,-3,-1,14,5,79,16,1,-2
1523946832404384,-1,-14,-42,-21,-10,-7,-13,-7
1523946832404384,-4,-1,18,3,5,-35,-11,-4
1523946832420424,1,1,4,-8,6,21,2,0
1523946832420424,0,0,6,28,-33,-34,-2,1
1523946832421427,1,3,-9,-17,-11,-5,1,-5
1523946832421427,-2,4,3,-2,-41,-11,0,3
1523946832433461,2,7,9,10,30,43,13,7
1523946832433461,1,-6,-13,-3,-3,6,-3,-2
1523946832442484,-1,-1,-11,5,7,2,1,-4
1523946832442484,-7,-8,-14,-10,-40,-21,-8,-9
1523946832455519,-2,0,6,1,-5,-20,-14,-5
1523946832455519,6,12,12,11,69,96,34,14
1523946832464543,3,0,-1,2,-3,-7,3,5
1523946832464543,-1,2,0,-11,4,-7,2,0
1523946832479587,-5,-12,-4,2,1,-1,-11,-8
1523946832479587,1,6,-1,-8,-40,-57,-13,-3
1523946832481589,-3,-1,-2,-14,33,27,5,0
1523946832481589,7,6,10,28,-23,5,1,4
1523946832493620,-1,1,-4,-3,29,11,0,-1
1523946832493620,-4,-5,-16,-12,-50,-29,-16,-5
1523946832502643,3,0,0,-13,-27,17,16,8
1523946832502643,-7,-9,-6,-4,38,-1,-11,-8
1523946832515678,-1,-3,-9,9,6,0,-5,1
1523946832515678,1,-3,-6,-13,-23,-14,-5,-5
1523946832524701,-4,-1,-6,3,-23,-63,-13,-7
1523946832524701,-1,3,2,-5,4,49,9,3
1523946832539742,3,-1,-1,7,-38,-23,-4,-1
1523946832539742,-2,-3,1,-2,-15,-57,-12,-4
1523946832541747,3,2,-1,3,62,88,20,4
1523946832541747,-4,-6,-17,-7,-16,-80,-4,-3
1523946832553785,0,-8,-19,-13,85,11,-8,-1
1523946832553785,-3,-5,8,2,-75,-16,-18,-8
1523946832562806,-1,-2,7,17,-10,-15,-4,-4
1523946832562806,-1,-3,-11,-16,-21,1,1,1
1523946832575838,-9,-7,-10,-12,-52,-9,-2,-4
1523946832575838,0,1,-3,8,39,5,11,2
1523946832584864,2,1,3,19,8,-9,-12,0
1523946832584864,2,4,32,-4,9,25,0,-1
1523946832599902,2,11,7,14,31,3,5,-1
1523946832599902,1,-4,-10,-10,7,9,0,2
1523946832600905,0,-6,-14,-3,-37,21,-2,0
1523946832600905,1,-1,-10,17,-14,-30,-4,5
1523946832612940,2,0,13,-10,-11,49,24,7
1523946832612940,-9,-13,-16,12,65,3,-16,-14
1523946832621961,-1,-3,-8,-17,-11,-67,-11,-7
1523946832621961,4,1,-3,-15,17,65,2,1
1523946832636000,-5,1,22,19,12,-24,-7,-5
1523946832636000,0,0,-9,-5,-33,8,7,-2
1523946832645029,-4,-5,-18,-21,-34,-34,-11,-2
1523946832645029,-2,2,-2,-7,-41,5,3,3
1523946832660062,-4,-13,-32,-11,18,12,-11,-10
1523946832660062,3,2,-16,-29,-1,-3,15,7
1523946832662074,0,7,33,10,9,8,-2,-3
1523946832662074,0,-8,-39,-3,-35,5,-3,2
1523946832673097,0,6,22,23,-8,-29,-2,-5
1523946832673097,1,3,13,17,25,47,7,6
1523946832682121,-1,-8,-20,5,10,6,-10,-1
1523946832682121,-6,-3,5,10,14,-1,3,-3
1523946832696162,-3,-7,-27,-15,-26,-15,-7,0
1523946832696162,4,11,39,9,-17,-21,1,6
1523946832705183,-3,-5,-25,-10,-29,6,9,3
1523946832705183,2,-5,-6,7,5,-9,-18,-6
1523946832719219,-4,3,3,-14,-2,-3,-1,0
1523946832719219,-5,-12,-32,-14,-6,23,-2,-2
1523946832726242,2,7,23,1,80,8,-4,1
1523946832726242,2,1,20,-3,24,36,11,5
1523946832733256,1,3,20,0,-30,-35,-3,0
1523946832733256,2,4,5,3,6,43,8,2
1523946832742281,-1,-1,-3,15,-39,-37,-3,0
1523946832742281,-4,-5,-5,-2,-13,-12,-6,-5
1523946832756318,7,9,-9,13,6,16,11,13
1523946832756318,-4,-1,12,-27,-46,-14,-12,-6
1523946832765343,1,-11,-11,-22,-7,19,9,4
1523946832765343,1,-2,-8,7,22,-32,-13,-11
1523946832779383,-2,-2,2,-2,-3,14,8,3
1523946832779383,1,-5,-4,-17,7,-25,1,-2
1523946832786404,2,5,12,-13,-48,-12,-13,-3
1523946832786404,-1,6,7,3,68,15,25,10
1523946832793417,-4,-18,-33,-4,32,-9,-27,-15
1523946832793417,2,11,20,19,-28,-28,29,8
1523946832802444,-5,-10,-23,32,-6,20,-4,-7
1523946832802444,2,-6,-4,0,-17,-20,-11,-4
1523946832815479,-1,9,0,4,12,14,8,7
1523946832815479,-4,-7,-19,-6,16,0,-22,-7
1523946832824499,1,6,8,-14,-4,34,14,4
1523946832824499,-3,1,12,0,-13,-9,1,0
1523946832838537,1,6,26,-6,-54,-2,4,-1
1523946832838537,3,-10,-36,-4,67,27,-7,4
1523946832847561,-2,-5,0,-5,-51,-26,1,0
1523946832847561,-7,-11,-21,-23,-34,-35,-15,-12
1523946832853583,0,-10,-21,-26,-36,-47,-35,-8
1523946832853583,-2,13,24,15,-4,54,19,5
1523946832862607,-4,-12,-19,-15,27,-27,-22,-13
1523946832862607,2,15,14,-14,-51,3,5,6
1523946832875636,3,6,9,26,32,8,13,4
1523946832875636,-5,-8,-6,-15,-4,-12,-25,-15
1523946832884667,6,-5,-19,4,27,22,-1,5
1523946832884667,-3,-4,-12,-1,-31,20,0,-6
1523946832898697,-1,4,24,-3,45,10,17,5
1523946832898697,-3,-12,-27,24,-6,-25,-14,-11
1523946832907720,-4,3,0,0,-13,-9,-7,-7
1523946832907720,6,7,12,-4,-2,-25,-8,-3
1523946832913738,0,-1,-13,4,11,-8,8,18
1523946832913738,-7,-25,-39,-25,8,-33,-34,-21
1523946832922761,-5,-1,-1,10,-29,27,1,0
1523946832922761,-4,-4,9,25,31,39,-12,-10
1523946832935796,-4,-12,-33,-34,-69,23,-4,-11
1523946832935796,3,9,33,53,58,-4,-6,-1
1523946832944825,-1,7,7,-9,-31,-24,13,1
1523946832944825,-3,-9,-21,-24,34,-24,12,4
1523946832958857,-2,-13,-17,4,-40,11,13,2
1523946832958857,2,2,2,-15,-72,-41,-9,0
1523946832967884,1,2,0,15,39,-5,-13,-2
1523946832967884,-1,2,8,22,13,34,41,13
1523946832972895,3,13,33,-15,-5,-21,20,8
1523946832972895,-6,0,-2,-30,11,-9,-18,-2
1523946832981918,9,5,-7,-13,-19,13,39,22
1523946832981918,-4,-18,-37,-16,11,-30,-17,-5
1523946832995958,2,-6,10,25,19,-12,-18,-4
1523946832995958,-6,-5,-5,-16,-35,-8,18,-10
1523946833004979,0,10,11,28,3,20,-4,-1
1523946833004979,-2,-2,4,6,55,14,-23,-8
1523946833018015,5,3,-7,11,-4,31,13,9
1523946833018015,2,2,-3,-8,-1,1,18,15
1523946833027040,-5,-17,-18,-8,-36,-27,-27,-12
1523946833027040,2,9,7,26,41,33,23,11
1523946833034060,-1,-4,-3,11,28,-17,-21,-17
1523946833034060,-1,-3,-6,-14,-65,-42,-13,-3
1523946833042078,0,6,18,15,107,-3,-1,3
1523946833042078,-6,-7,4,9,-23,0,1,-10
1523946833056114,0,-11,-17,-13,31,21,-7,-3
1523946833056114,-1,2,5,16,-25,6,8,0
1523946833065143,-1,8,37,3,-12,-9,11,3
1523946833065143,-7,-15,-30,-34,-44,-30,-15,-6
1523946833078182,-3,-1,4,9,13,10,-4,-5
1523946833078182,1,-1,3,4,-5,1,1,3
1523946833087199,-2,0,4,-16,-10,20,-4,-1
1523946833087199,1,4,1,-9,36,-24,-20,-8
1523946833093217,-1,-5,-21,13,-40,-45,4,7
1523946833093217,0,-2,-2,-45,64,-4,-10,-3
1523946833102238,-1,-7,-25,-3,-23,-9,3,-5
1523946833102238,1,-2,7,2,-21,70,-9,1
1523946833116278,-1,2,-2,-67,-20,40,4,-2
1523946833116278,-1,1,48,47,-50,-22,-9,-3
1523946833125299,-3,-8,-17,-13,81,6,7,0
1523946833125299,3,6,6,-9,-3,-36,6,4
1523946833138335,-6,8,25,-19,-20,-8,-6,-6
1523946833138335,-1,-6,-17,19,37,41,9,0
1523946833147359,0,1,-9,-11,-34,-10,22,3
1523946833147359,4,10,22,38,13,10,10,11
1523946833153377,2,0,21,19,51,13,3,1
1523946833153377,-7,-5,-5,-14,-45,-38,-4,-12
1523946833162398,4,3,10,15,57,77,7,6
1523946833162398,-4,-6,-22,-11,-2,-34,-11,-7
1523946833175432,-3,0,1,20,9,10,-5,-7
1523946833175432,6,14,20,4,3,29,30,17
1523946833185463,-6,-11,-10,-23,-37,-51,-24,-10
1523946833185463,1,7,2,-10,-31,18,3,-4
1523946833198496,1,2,13,38,21,52,1,-3
1523946833198496,-1,-9,-17,-4,17,-10,-19,-6
1523946833207517,-1,-7,-15,3,-20,-26,-8,-1
1523946833207517,0,4,-2,-11,5,-51,-3,-1
1523946833213534,0,1,-11,1,-59,-22,7,5
1523946833213534,-2,-6,-34,-18,42,5,-4,2
1523946833222557,-3,-3,-10,-3,-47,1,-4,-5
1523946833222557,-2,-2,12,-8,-18,-36,-15,-6
1523946833235596,-1,-5,-23,6,26,19,3,-1
1523946833235596,0,3,-9,1,-14,9,8,0
1523946833244617,-2,3,7,-9,33,-21,4,-1
1523946833244617,-1,-1,-10,-3,-25,18,7,3
1523946833258655,2,-2,-5,-13,0,-11,-5,-1
1523946833258655,-3,-7,-3,-3,6,-22,-2,-4
1523946833267679,-2,3,10,44,2,6,-11,-5
1523946833267679,3,-5,-21,-29,-13,7,-4,2
1523946833273697,-5,-4,-6,-1,2,-29,-19,-12
1523946833273697,4,9,-2,4,4,22,32,15
1523946833282719,-1,-10,-17,-18,-23,-7,-22,-8
1523946833282719,-5,2,11,13,5,-14,17,4
1523946833295754,1,-1,-11,9,11,37,-12,-2
1523946833295754,0,2,27,-4,5,-16,-2,-3
1523946833304776,-1,3,-11,-9,12,14,5,-5
1523946833304776,2,-1,-4,1,-12,-5,2,-1
1523946833318814,-5,1,11,-10,-26,-25,-2,-7
1523946833318814,9,10,6,3,12,56,19,21
1523946833327842,-2,-10,-10,6,14,-17,-12,-6
1523946833327842,-1,-3,-3,-1,2,16,3,-3
1523946833333858,-2,2,2,-23,-39,-9,-5,-2
1523946833333858,-1,-5,-5,18,33,19,2,-7
1523946833341876,-2,-1,1,13,5,-18,-3,-1
1523946833341876,4,6,7,2,39,33,10,7
1523946833355913,-2,-9,-6,-30,16,-26,-1,-1
1523946833355913,-4,-2,19,21,-49,-23,-3,-7
1523946833364937,-4,3,14,9,9,-17,11,-1
1523946833364937,-7,-16,-15,27,-22,0,-12,-9
1523946833377979,0,-1,-1,-24,-31,-1,6,-2
1523946833377979,-2,-8,-26,-46,-50,-15,-23,-10
1523946833386996,-1,-3,-22,-9,-3,-10,-5,-4
1523946833386996,3,11,10,-2,-23,6,15,8
1523946833402036,-4,-1,0,5,-14,-17,6,-3
1523946833402036,1,6,12,5,48,16,-8,3
1523946833404040,-4,-16,-32,-2,-21,-13,-5,-11
1523946833404040,-5,-2,-5,-17,23,-13,2,0
1523946833416072,-1,0,6,16,17,5,-12,-1
1523946833416072,7,11,11,1,-24,21,27,10
1523946833425096,1,1,7,-7,-3,17,9,2
1523946833425096,5,-2,3,7,-10,5,-5,6
1523946833438132,1,-1,-11,0,-5,-6,13,3
1523946833438132,-10,2,31,17,27,-9,-10,-6
1523946833447154,0,0,3,6,3,19,-1,0
1523946833447154,-2,-3,2,-4,0,-11,-5,-3
1523946833462197,1,1,-5,-7,-6,6,-1,-4
1523946833462197,-4,-2,6,-10,-3,0,-12,-6
1523946833464203,4,5,8,6,16,-6,9,9
1523946833464203,-6,-12,-29,-21,-30,3,-18,-8
1523946833476233,-5,-6,0,3,-17,-36,-14,-6
1523946833476233,4,8,-3,15,77,8,20,7
1523946833485258,-6,-10,3,1,56,58,-2,-7
1523946833485258,-1,-1,1,11,-15,-21,-4,1
1523946833498291,1,0,-7,-17,-3,-1,-7,-5
1523946833498291,-2,5,16,11,-68,-21,-4,2
1523946833507314,-4,5,16,-10,-14,2,7,2
1523946833507314,0,-4,-15,-4,1,14,3,-4
1523946833522356,-1,3,9,-19,35,4,7,5
1523946833522356,-1,-6,3,45,0,-18,-16,-7
1523946833523369,2,1,-7,-21,-13,8,3,0
1523946833523369,-3,-1,-8,9,-23,-6,1,-1
1523946833536393,0,1,-2,16,16,-5,-2,4
1523946833536393,1,-5,-17,13,56,1,-4,-3
1523946833545417,-2,-2,6,-18,-23,-3,2,-3
1523946833545417,0,3,2,15,-37,-22,-6,-2
1523946833558453,7,11,10,25,43,68,28,12
1523946833558453,-6,-7,-25,-17,0,22,-2,-6
1523946833567475,-1,-1,2,9,-18,-26,-6,0
1523946833567475,0,-4,-6,-16,-3,-10,-11,-7
1523946833582522,0,-1,-1,-8,5,7,1,5
1523946833582522,-4,-4,-6,8,-34,-14,-9,-7
1523946833583518,0,3,14,-7,11,5,2,4
1523946833583518,-4,-15,-33,-3,-41,8,-4,-7
1523946833595550,-1,2,4,-25,7,-15,-6,-2
1523946833595550,2,1,-8,-34,-32,26,4,1
1523946833604574,-5,3,10,17,0,-62,-14,-5
1523946833604574,4,7,20,13,100,45,19,15
1523946833618614,-5,-21,-33,-5,1,-34,-18,-8
1523946833618614,-1,-7,-2,-11,-28,-16,-2,-4
1523946833634656,2,1,-17,-11,-20,-7,-9,-1
1523946833634656,-2,7,25,-13,-19,-15,-2,-4
1523946833642675,3,-2,-11,19,6,23,4,4
1523946833642675,-6,-9,-28,-26,-33,-14,-6,1
1523946833643678,1,4,12,8,35,-7,-4,-1
1523946833643678,-5,-9,-17,-8,-56,-46,-11,-7
1523946833664733,-1,1,11,19,81,62,3,3
1523946833664733,3,5,-5,11,-24,2,6,2
1523946833666739,-3,-10,-7,-36,-63,-9,-11,-4
1523946833666739,-3,-14,-43,-14,6,1,-4,-6
1523946833678771,-3,3,15,-2,22,-26,8,-2
1523946833678771,-3,-10,-28,-6,-26,-23,-10,-4
1523946833687794,0,-2,-5,0,-16,6,-6,0
1523946833687794,-2,7,11,5,-37,38,3,-1
1523946833701833,-1,8,20,43,32,9,12,0
1523946833701833,-1,-8,-14,-19,5,-12,-1,-3
1523946833703838,-5,-5,-8,-3,-25,3,10,-4
1523946833703838,3,-3,-7,-9,73,-16,-15,2
1523946833715870,-4,-5,-21,6,-56,-9,-4,-4
1523946833715870,-1,-6,-23,-21,-16,-7,-2,-3
1523946833724893,1,6,27,2,6,8,-4,-2
1523946833724893,-4,-2,2,-12,-17,-18,5,0
1523946833737928,-3,-3,-13,-32,-17,26,7,1
1523946833737928,-1,-4,5,3,55,32,-5,1
1523946833746955,-1,2,3,22,-10,0,-7,-4
1523946833746955,0,1,0,-9,-2,23,13,3
1523946833761994,-2,-5,-8,-26,-32,-43,-19,-9
1523946833761994,-3,-1,2,14,-45,-15,-9,-4
1523946833763998,4,10,14,10,75,69,31,13
1523946833763998,-2,-12,-22,-9,-55,-30,-27,-12
1523946833776028,-3,-3,-7,11,7,17,5,-2
1523946833776028,-4,-3,-2,-7,-40,-21,-9,-4
1523946833785062,1,-9,-21,-5,21,-7,-12,-3
1523946833785062,4,11,14,-5,67,90,29,9
1523946833798088,-1,-3,9,20,-47,-23,-11,-3
1523946833798088,0,4,-13,-19,43,-5,9,4
1523946833807112,-4,-3,22,15,-53,-25,-20,-7
1523946833807112,-2,7,12,-8,-2,-8,10,3
1523946833822151,-1,-3,-3,-11,-12,1,0,-2
1523946833822151,0,0,3,6,13,4,-4,-2
1523946833824157,0,-8,-30,3,19,-2,8,-1
1523946833824157,-1,1,18,3,-20,-28,-19,-2
1523946833836192,-1,-4,-24,1,-5,-17,7,1
1523946833836192,-3,-1,15,2,27,-11,-5,-2
1523946833845216,0,0,-13,-13,-34,1,4,1
1523946833845216,-1,2,13,16,34,24,-1,-1
1523946833858247,0,-9,-14,-12,-12,-44,-14,-6
1523946833858247,1,1,4,5,12,3,-1,0
1523946833867272,1,7,14,1,14,12,3,2
1523946833867272,-2,-10,-23,-8,-37,-28,2,-1
1523946833882315,0,1,3,-3,-5,20,-1,3
1523946833882315,2,8,20,9,45,25,4,2
1523946833884319,-6,-11,-11,6,-37,-25,-18,-9
1523946833884319,-4,-2,-10,-4,-3,-15,-5,-5
1523946833896351,1,4,3,5,13,7,-1,2
1523946833896351,0,1,2,-3,-21,-19,-5,-3
1523946833904371,1,0,-21,-28,-30,-12,6,2
1523946833904371,5,11,45,66,56,38,22,10
1523946833918409,-4,-13,-20,-45,-4,-33,-16,-8
1523946833918409,2,8,25,16,20,5,6,0
1523946833927436,-2,-13,-22,-10,-12,-13,-24,-10
1523946833927436,6,4,-9,-1,4,-20,32,12
1523946833941470,-3,-2,-4,2,-15,-17,-10,-2
1523946833941470,0,2,5,6,1,12,6,-3
1523946833948492,-1,-4,-9,1,35,12,-1,2
1523946833948492,-4,0,-3,-11,-19,-19,-15,-6
1523946833955506,0,-2,3,-2,-19,30,4,-3
1523946833955506,-5,-4,-3,-1,-14,2,-1,2
1523946833964531,2,2,1,18,-22,8,13,3
1523946833964531,-5,-14,-24,-38,-11,-5,-18,-9
1523946833978571,1,6,10,2,21,-6,3,1
1523946833978571,-5,0,19,-31,-15,-3,-8,-7
1523946833987592,-1,-1,5,8,23,-4,3,-1
1523946833987592,-1,-5,-19,-11,5,-9,-6,-6
1523946834002632,-3,8,21,16,-4,5,6,-1
1523946834002632,1,-10,-27,-17,-6,-9,-11,2
1523946834003634,-2,5,8,23,20,15,22,6
1523946834003634,-1,-3,2,-13,-21,-17,-19,-6
1523946834015666,-5,0,-4,23,46,27,5,-5
1523946834015666,3,-5,-7,-2,-61,-27,-5,3
1523946834024690,0,2,3,-1,18,-9,-7,-2
1523946834024690,-3,-8,-18,-1,-25,2,-10,-7
1523946834038729,1,-4,-5,-4,-5,14,-2,-1
1523946834038729,0,-2,-10,-1,-5,5,10,2
1523946834047752,-2,-4,-6,-15,-26,1,-3,-1
1523946834047752,-2,3,14,-1,20,0,-1,-1
1523946834061790,4,4,7,-6,-15,-10,1,3
1523946834061790,-4,-2,-1,5,13,8,2,-4
1523946834063795,2,0,-4,2,-40,-9,2,0
1523946834063795,0,-1,4,-16,25,-6,1,-1
1523946834075829,-2,-4,-13,-5,-7,6,-5,-4
1523946834075829,-3,-8,-18,-1,-20,12,2,-2
1523946834084851,0,-2,-3,-3,18,-12,-3,1
1523946834084851,2,1,3,12,-40,7,1,5
1523946834097885,0,6,15,19,29,15,14,3
1523946834097885,1,1,3,-11,13,34,-3,1
1523946834106908,-1,2,15,-2,10,-20,-3,-3
1523946834106908,-1,2,13,0,0,13,2,0
1523946834121949,-4,-4,-11,16,-5,-17,-4,-3
1523946834121949,1,-3,-9,10,8,4,0,-3
1523946834127969,0,0,6,-18,-6,15,11,0
1523946834127969,-2,0,-5,-10,-7,-20,-5,-5
1523946834135988,3,-4,-13,-2,-7,12,3,3
1523946834135988,-3,-3,2,-6,8,-14,-5,-5
1523946834145016,0,-2,-8,1,6,-7,0,2
1523946834145016,-6,-13,-25,-9,-28,-40,-17,-4
1523946834158045,1,2,8,8,19,4,16,5
1523946834158045,-2,-11,-19,-21,-29,-46,-9,-2
1523946834167069,-4,-1,2,7,13,16,-3,-1
1523946834167069,1,0,-4,9,7,9,-5,-4
1523946834181106,-1,-5,-10,-6,-8,-18,-1,-1
1523946834181106,-2,1,9,14,7,-8,-3,-2
1523946834188125,-1,-5,-23,-21,1,13,2,-2
1523946834188125,0,-1,-4,19,5,-6,-2,-3
1523946834196146,-1,2,10,-24,5,0,-10,-3
1523946834196146,0,1,-1,24,-18,-1,4,-2
1523946834205170,2,-1,-8,-8,-5,-2,2,1
1523946834205170,-3,-1,2,1,12,25,4,-2
1523946834218207,-1,0,-3,-5,0,-17,-6,1
1523946834218207,3,-4,-13,9,50,24,2,6
1523946834227236,-1,8,34,-6,-30,-16,-3,0
1523946834227236,0,1,9,-21,39,44,13,4
1523946834241269,-1,-8,-18,2,-52,-15,-12,-8
1523946834241269,-5,-1,-2,13,-19,-36,-13,-5
1523946834248286,-1,-2,-3,-4,6,26,2,1
1523946834248286,0,2,-1,9,-8,-13,-3,3
1523946834264328,0,-2,-2,-17,-24,20,0,0
1523946834264328,1,5,9,-1,33,0,8,4
1523946834266333,-1,-2,0,15,9,6,2,-1
1523946834266333,-1,-2,-1,8,-16,-33,-5,-2
1523946834278366,0,-2,2,1,-3,14,-1,-2
1523946834278366,-1,1,2,2,-12,-2,1,-2
1523946834287388,-2,-2,-2,-9,2,-12,-10,-5
1523946834287388,1,0,-20,7,7,16,2,2
1523946834301426,-2,-4,4,5,-8,-35,0,1
1523946834301426,-1,-4,-7,-25,-2,10,-3,-2
1523946834308448,-1,-4,-6,-25,-19,-36,1,-3
1523946834308448,1,0,6,20,-16,-5,0,-2
1523946834324487,0,-3,-18,22,20,23,-1,-3
1523946834324487,-1,-5,-4,-9,12,19,-3,-3
1523946834326493,-2,-2,-8,16,-3,-28,-8,-2
1523946834326493,-3,-3,8,-19,-9,-18,-9,-4
1523946834338527,-5,-8,-22,-13,-24,-22,-10,-4
1523946834338527,0,-2,-9,-4,2,21,-5,-2
1523946834347548,-4,-2,-4,8,-12,-2,6,-2
1523946834347548,-1,-9,-12,-7,-2,-1,-7,-2
1523946834361587,4,2,19,-4,-14,-17,-13,-3
1523946834361587,-3,2,-2,-1,16,11,13,3
1523946834368611,-4,0,11,-1,-7,3,-9,-4
1523946834368611,-1,-3,-1,9,-6,-15,-5,-1
1523946834384650,1,5,6,-5,-4,12,18,7
1523946834384650,1,-2,-17,-20,-7,-2,-4,-2
1523946834386653,1,0,7,22,6,-2,7,3
1523946834386653,-2,10,22,-10,29,3,1,3
1523946834398684,-2,-4,-9,2,0,-2,-10,-2
1523946834398684,-1,-2,2,-11,-20,-33,8,1
1523946834407709,0,0,-17,-10,5,22,6,6
1523946834407709,-1,2,21,6,0,0,-1,1
1523946834421746,-3,-1,-3,9,29,0,-2,-4
1523946834421746,-1,-4,-1,-12,-38,-8,-10,-5
1523946834428767,-2,0,-2,9,52,6,9,2
1523946834428767,0,-2,-4,3,-13,-3,-3,1
1523946834444809,-1,-2,-1,-3,7,-8,4,1
1523946834444809,-2,1,1,11,-33,0,-8,-1
1523946834446812,-2,-3,-11,-16,-31,-8,-4,-1
1523946834446812,0,-4,-9,10,25,18,3,-3
1523946834458846,-3,-2,-2,-4,-9,-4,2,-2
1523946834458846,1,4,10,11,14,0,7,4
1523946834467870,-3,-4,-12,-16,-38,-8,-14,-6
1523946834467870,-3,-3,-7,5,13,-4,7,1
1523946834481909,0,-4,-20,-29,10,-2,-7,2
1523946834481909,-2,5,26,-9,-5,-6,-1,-2
1523946834487925,0,-6,-20,16,-10,7,-2,-4
1523946834487925,-3,2,-12,0,-2,14,13,0
1523946834504966,-2,1,24,-11,2,-5,3,1
1523946834504966,-3,-5,-15,1,10,2,-6,-5
1523946834505970,3,1,16,-5,4,12,-12,0
1523946834505970,-5,-4,-12,-2,-14,-10,5,-3
1523946834518002,0,5,5,11,11,35,15,1
1523946834518002,-4,-8,-18,1,12,-36,-13,-5
1523946834527029,0,5,15,1,-7,25,3,-1
1523946834527029,1,-1,-6,-7,-1,-4,-3,0
1523946834542067,-1,0,12,41,-16,-3,-2,-1
1523946834542067,-1,-5,-1,-1,8,5,1,-1
1523946834548089,-4,-7,-16,-7,-2,7,-2,-6
1523946834548089,2,3,4,-9,-33,-19,-2,0
1523946834565128,-1,-6,-26,-33,13,13,-2,-4
1523946834565128,1,6,22,29,12,-15,6,0
1523946834566131,1,-3,-6,1,21,-2,-1,1
1523946834566131,-2,-2,-11,-6,-24,-6,-6,-5
1523946834578163,-2,1,14,-11,-4,-3,-5,-5
1523946834578163,0,-2,-6,1,-12,19,3,4
1523946834587185,-4,-6,-3,-44,-2,-35,-13,-5
1523946834587185,3,-2,6,9,24,11,-9,3
1523946834601224,0,0,-5,16,0,-14,1,0
1523946834601224,-1,-5,-18,-5,-12,6,-5,-4
1523946834608245,-3,1,12,-13,-11,12,13,2
1523946834608245,-4,-2,1,10,8,2,-12,-5
1523946834624285,-1,-4,-21,-18,20,3,9,3
1523946834624285,-3,-2,-8,-8,-28,-20,-4,-4
1523946834626289,0,5,18,15,-15,-16,-9,0
1523946834626289,-3,-3,-8,-10,7,35,13,1
1523946834638321,-2,-3,2,0,-14,-3,-10,-3
1523946834638321,-2,-1,-8,-1,9,3,14,1
1523946834647347,-1,2,-4,13,22,14,1,-2
1523946834647347,0,-6,0,-21,-8,-16,-5,-3
1523946834661385,-2,-1,-1,14,-9,-2,-6,-4
1523946834661385,-1,4,12,17,3,0,-2,1
1523946834669404,2,-1,1,35,11,-10,0,2
1523946834669404,-3,-7,-11,-35,0,12,3,2
1523946834684444,-2,7,14,8,5,-9,0,-2
1523946834684444,-3,-2,7,-18,-24,10,-6,-5
1523946834686449,-1,-10,-19,13,-3,-16,-11,-6
1523946834686449,1,-3,-12,-2,-5,-18,-3,-1
1523946834698484,-1,-6,-9,-2,-14,1,-9,-2
1523946834698484,-1,-4,-14,-14,14,-8,-3,-1
1523946834707505,-1,1,5,-18,-24,-15,-9,-3
1523946834707505,1,-1,-4,2,-17,1,3,-1
1523946834720541,2,4,8,1,-8,-16,2,1
1523946834720541,2,-4,-9,4,-1,0,1,1
1523946834729564,1,1,-3,3,34,19,9,3
1523946834729564,0,-4,-16,-10,-11,-9,-7,-3
1523946834744605,-1,-2,4,0,-12,-15,-3,0
1523946834744605,1,0,-10,7,24,16,6,1
1523946834746610,1,3,1,2,-24,8,7,3
1523946834746610,-5,-5,7,-9,3,-9,-6,-6
1523946834758641,0,-5,-7,-10,-3,-3,-3,-2
1523946834758641,-1,1,-2,-4,2,-10,-2,-2
1523946834767667,2,0,-3,0,-8,1,-3,2
1523946834767667,0,1,-2,34,3,12,1,-2
1523946834780700,2,4,5,-7,0,-17,-4,0
1523946834780700,-14,-6,2,-5,0,2,-3,-3
1523946834789723,2,-1,-12,-11,-21,-6,-4,0
1523946834789723,3,2,3,12,11,6,6,7
1523946834804764,0,1,10,2,15,39,4,1
1523946834804764,1,-2,-8,-3,7,-9,3,0
1523946834806769,-3,-4,-14,-13,7,13,1,-4
1523946834806769,1,6,21,15,-3,11,0,3
1523946834818804,-2,-7,-22,6,-8,-7,-3,-3
1523946834818804,0,1,9,-11,-22,-20,-2,-4
1523946834827825,-4,-3,-12,35,8,11,3,3
1523946834827825,7,3,25,-12,-9,-23,2,1
1523946834840860,-11,-7,-9,6,-9,3,-6,-7
1523946834840860,1,-1,4,-9,-10,5,0,1
1523946834849883,1,-7,-15,20,48,-18,-12,-7
1523946834849883,-6,-7,-18,-7,-28,-3,4,0
1523946834864926,1,2,8,3,24,3,6,0
1523946834864926,3,-4,-17,-7,-31,2,-4,-2
1523946834865929,-5,-3,1,-12,0,-1,-2,-2
1523946834865929,-5,2,2,3,-4,1,-2,-2
1523946834877958,-1,-1,3,-24,25,23,6,1
1523946834877958,8,0,-2,14,18,-31,-3,6
1523946834886983,6,4,36,-9,1,-6,-3,-1
1523946834886983,-4,-7,-21,0,-14,1,-5,-2
1523946834901020,-7,-3,-4,-18,-40,-8,-7,-4
1523946834901020,-5,-9,-6,-9,12,9,-3,-5
1523946834910050,-1,-3,-14,-35,-38,-10,-5,-5
1523946834910050,4,-3,-3,6,30,0,4,-1
1523946834925083,9,1,-4,-5,-48,-15,-3,3
1523946834925083,-14,-7,-12,10,8,1,0,-12
1523946834926090,2,-27,-62,-32,-26,-37,-20,-12
1523946834926090,-35,-128,-128,-128,-128,-128,-128,-115
1523946834940123,-14,-5,54,-109,-72,-98,-6,-47
1523946834940123,-86,101,127,124,40,118,15,-104
1523946834947150,45,-120,-115,-127,88,115,113,95
1523946834947150,-101,-45,100,-53,-77,127,30,-43
1523946834961180,103,-49,9,114,120,127,85,93
1523946834961180,-128,80,-105,-111,30,61,-91,-30
1523946834970204,-14,9,120,-89,-113,-106,-95,-84
1523946834970204,83,127,-51,109,82,2,121,123
1523946834984241,25,-113,35,65,42,22,88,99
1523946834984241,127,-111,-95,3,56,34,79,-66
1523946834986246,73,71,37,0,115,21,-3,16
1523946834986246,12,43,-27,-26,38,-27,-62,-24
1523946834998281,-55,7,-128,28,-128,8,-112,-54
1523946834998281,-27,-128,49,-33,-103,-97,-90,-42
1523946835007302,-128,-90,51,-30,-128,-97,-127,-128
1523946835007302,-120,-109,-54,-62,-126,-128,-126,-128
1523946835021342,-82,22,40,-43,-91,-41,-65,-47
1523946835021342,-36,7,-2,-24,-5,88,-38,-14
1523946835029360,-24,38,-128,88,47,121,-11,-37
1523946835029360,47,-6,-62,-33,127,127,61,60
1523946835044401,7,-39,-128,-85,34,-62,-26,-58
1523946835044401,23,0,-128,-6,-116,-128,-12,30
1523946835050425,31,32,44,49,2,2,50,62
1523946835050425,51,3,8,49,97,-14,38,45
1523946835058440,-3,40,29,-18,34,-19,-11,-20
1523946835058440,44,46,54,41,40,-1,46,61
1523946835067466,20,4,32,44,22,15,49,46
1523946835067466,12,-2,61,-5,-44,-14,10,5
1523946835080497,-3,12,5,-13,16,12,6,-8
1523946835080497,24,-4,13,-8,9,-12,23,42
1523946835089522,2,-12,-50,-10,-16,-10,6,-7
1523946835089522,-2,13,0,6,-17,-5,-6,-1
1523946835103558,-1,16,17,-7,4,12,6,-2
1523946835103558,15,-16,-33,-4,19,4,5,14
1523946835110583,-16,-2,-12,-1,-31,-26,-10,-15
1523946835110583,-1,15,31,15,18,14,3,0
1523946835118604,3,8,-5,1,-1,2,-1,-2
1523946835118604,0,-14,-34,-27,-27,-19,-9,-3
1523946835127624,-5,1,-17,5,1,3,-1,-3
1523946835127624,0,2,13,28,-4,-9,-1,7
1523946835140658,-10,-11,-39,-17,-49,-19,-8,-28
1523946835140658,1,-6,-18,-18,-1,-26,-13,-1
1523946835149681,-3,3,16,-16,-4,2,-4,0
1523946835149681,-2,-5,-1,30,19,11,4,-2
1523946835163718,-8,-2,-3,-2,-18,-19,-13,-17
1523946835163718,5,7,27,-7,1,16,19,10
1523946835170738,1,4,1,0,14,15,7,5
1523946835170738,-3,-9,-7,-5,-15,-23,-19,-10
1523946835178757,0,6,0,5,5,16,4,1
1523946835178757,1,-3,10,0,8,2,11,8
1523946835187783,-3,-10,-23,4,-5,12,-5,-9
1523946835187783,-4,-4,-16,-17,-25,7,-9,-7
1523946835200818,7,15,25,32,77,10,17,15
1523946835200818,-4,-8,-5,-10,-29,-20,-16,-8
1523946835209849,-1,-2,-2,10,13,16,15,1
1523946835209849,-2,3,3,-6,-20,-7,-5,-5
1523946835223878,-3,-3,0,2,10,9,1,-2
1523946835223878,-2,-9,-14,-6,-44,-6,-4,-5
1523946835230903,-4,2,3,4,-1,-29,-10,-4
1523946835230903,9,9,17,10,21,31,23,12
1523946835246941,-5,-13,-29,-17,-14,-3,-17,-9
1523946835246941,1,-1,7,11,-10,-15,-2,-3
1523946835248946,1,0,9,3,0,6,11,7
1523946835248946,-4,-12,-18,-3,-26,8,-8,-6
1523946835260978,-4,-4,-12,-6,47,-32,-4,-7
1523946835260978,-4,-6,-5,-5,-45,1,-6,-4
1523946835270000,-2,-1,0,-3,29,-37,-5,0
1523946835270000,-3,-5,0,18,-19,-5,-1,-2
1523946835284042,-4,1,-2,-16,-13,18,-3,-5
1523946835284042,3,2,3,-2,28,11,7,7
1523946835291059,-4,-6,-9,-3,-19,-19,-11,-6
1523946835291059,3,4,0,-9,-15,-15,2,0
1523946835307100,-2,0,2,7,-25,24,0,0
1523946835307100,-3,-5,-7,1,65,-25,-5,-4
1523946835309105,1,-8,-8,-11,-29,-7,-7,-1
1523946835309105,2,1,-2,-10,10,21,8,6
1523946835322139,-7,-6,-4,-4,-21,-16,-11,-10
1523946835322139,-2,-2,-9,-1,-38,-5,-2,-2
1523946835330172,-2,-3,-4,13,64,7,-2,-1
1523946835330172,-4,-4,-1,-6,-4,25,3,-3
1523946835344199,1,4,0,8,5,-1,5,0
1523946835344199,-1,3,4,-20,-5,0,-1,2
1523946835351220,0,4,11,-5,-22,0,0,-1
1523946835351220,1,-4,-8,2,6,-16,-3,0
1523946835367261,-5,-4,-10,-18,-28,-7,-7,-3
1523946835367261,2,3,6,10,23,10,8,2
1523946835369265,-1,-1,7,-1,-20,7,3,-4
1523946835369265,-3,-2,-2,-5,7,-15,-2,-2
1523946835381298,3,0,3,8,3,9,4,-2
1523946835381298,2,7,13,-16,7,11,0,5
1523946835390321,2,5,11,14,2,26,8,4
1523946835390321,-2,-1,0,6,16,-25,-10,-8
1523946835404357,-1,0,6,-8,13,-13,3,6
1523946835404357,-4,-4,-9,2,-15,3,-2,-2
1523946835411381,-4,-4,-17,-2,-21,-16,-13,-11
1523946835411381,2,2,13,-3,27,73,30,9
1523946835427420,-4,-3,-11,4,-7,-10,-10,-7
1523946835427420,1,4,18,2,1,-26,-3,1
1523946835428424,-3,-4,3,-11,-5,-4,-3,0
1523946835428424,-3,0,-1,10,-1,-19,-3,-2
1523946835440454,-1,-3,-1,-19,-13,3,-4,-2
1523946835440454,0,-1,-15,5,2,10,1,0
1523946835449479,-1,7,15,-3,-8,-2,3,1
1523946835449479,-5,-9,-11,-9,-16,-24,-22,-9
1523946835464521,5,7,12,10,11,-24,6,10
1523946835464521,-5,-16,-25,-11,1,4,-14,-6
1523946835470535,-2,-4,-14,1,16,10,9,-1
1523946835470535,1,3,13,2,0,-5,3,0
1523946835487581,-1,-5,-8,-3,-21,-19,-8,-7
1523946835487581,-4,-4,-6,-6,1,19,-3,0
1523946835488582,1,2,-12,-1,12,-1,9,2
1523946835488582,-3,2,6,10,-12,-13,-15,-7
1523946835500614,-4,3,7,2,10,-18,9,-2
1523946835500614,-1,5,-3,2,17,16,-2,2
1523946835517660,-1,-5,-6,-8,-18,-23,-8,-3
1523946835517660,-5,-10,-27,-13,-15,-5,-9,-6
1523946835523676,-2,-5,-5,8,7,-6,2,0
1523946835523676,-2,-3,7,15,9,0,2,-4
1523946835530694,0,-6,-12,-12,-1,-9,-12,-1
1523946835530694,1,-4,-6,-7,-40,-18,-2,-3
1523946835547742,0,-1,3,1,1,23,2,-2
1523946835547742,3,1,8,-4,1,-4,9,3
1523946835548744,-2,-2,-4,1,-1,18,-4,-3
1523946835548744,-1,5,5,3,13,-18,6,-1
1523946835560776,2,0,9,0,-5,26,2,3
1523946835560776,-2,3,-4,6,33,15,9,0
1523946835569797,-3,-9,-10,-11,-54,-29,-14,-10
1523946835569797,7,7,2,5,57,10,11,12
1523946835583836,-3,-2,4,-3,-2,12,-5,-6
1523946835583836,-3,-5,-1,0,-12,-9,-7,-7
1523946835590855,-2,-3,-12,4,-42,4,6,0
1523946835590855,-1,3,9,-2,-22,-7,-7,-3
1523946835606898,6,3,-5,2,4,35,17,9
1523946835606898,0,-4,-6,-1,27,-31,-17,-6
1523946835608902,-3,2,4,4,3,19,9,4
1523946835608902,3,-4,-9,-9,-25,-12,-5,1
1523946835620934,-8,-5,-12,2,-13,-15,-9,-10
1523946835620934,4,3,3,-3,18,9,3,5
1523946835629961,1,-4,-1,5,-25,2,-1,0
1523946835629961,-7,-5,-13,-2,18,1,-3,-5
1523946835643996,1,5,9,3,-5,-6,-3,-1
1523946835643996,3,6,8,5,-4,6,5,6
1523946835651017,-1,-1,2,0,10,-16,-3,0
1523946835651017,-2,0,-8,-21,-31,10,-3,-6
1523946835667061,-5,-6,-7,-2,0,-18,-15,-9
1523946835667061,-1,-4,-9,5,-3,-3,6,-1
1523946835669062,-1,-5,-3,0,20,-3,-9,-2
1523946835669062,-5,-1,-2,0,-1,-11,-5,-4
1523946835681095,-1,-8,-12,-10,-1,-14,-6,-4
1523946835681095,-1,-5,-1,5,-38,9,9,0
1523946835690117,2,2,6,4,25,0,8,2
1523946835690117,6,3,1,3,21,46,20,10
1523946835704155,-4,-5,-11,-6,8,-21,-19,-9
1523946835704155,-6,-5,-2,-3,-37,-18,-11,-6
1523946835711176,-1,-1,-2,10,40,1,0,0
1523946835711176,-4,-6,-13,-13,-57,-13,-2,-5
1523946835727218,0,0,6,0,3,10,7,5
1523946835727218,-1,-1,-4,-7,-6,-2,1,-3
1523946835729223,-1,-4,-9,11,13,14,-3,1
1523946835729223,-2,2,11,-19,6,-10,-6,-1
1523946835742261,0,1,5,2,-10,1,0,-1
1523946835742261,9,1,1,0,11,-10,0,5
1523946835750281,-2,-1,2,-8,-16,-2,-3,-9
1523946835750281,-4,-9,-24,3,-2,-24,-13,-7
1523946835764315,-1,2,6,15,21,12,12,9
1523946835764315,-2,-5,-18,-11,-41,-6,-3,-5
1523946835771334,0,4,-3,0,-3,-23,1,3
1523946835771334,-5,-8,7,-3,15,-7,-7,-5
1523946835787378,-1,-2,-4,7,26,8,-12,-4
1523946835787378,-3,5,14,-3,10,-3,2,-3
1523946835788378,0,-4,-12,4,-29,11,4,-1
1523946835788378,2,8,25,15,23,10,4,1
1523946835800410,-6,-10,-16,-13,-27,-7,-4,-8
1523946835800410,-2,-2,-5,1,-13,2,2,5
1523946835809440,1,4,10,-14,17,4,7,6
1523946835809440,0,-2,-3,9,14,4,-1,0
1523946835824475,3,-5,-15,-20,-70,-15,-8,-4
1523946835824475,-7,0,7,-3,41,1,0,-3
1523946835831502,-3,0,-3,4,-2,14,3,-4
1523946835831502,-4,-9,-10,10,-42,-10,-10,-4
1523946835847542,3,7,13,3,26,20,7,6
1523946835847542,1,1,1,-12,-3,15,5,1
1523946835848540,3,5,7,6,6,8,-5,1
1523946835848540,-4,-6,-7,-16,0,-8,-3,0
1523946835860573,-2,0,-7,3,-13,-14,-7,-4
1523946835860573,-2,-7,-1,-1,1,10,0,-1
1523946835869596,-1,-4,-5,-4,11,5,-3,-6
1523946835869596,8,11,8,17,5,2,4,11
1523946835883631,3,5,5,-12,-3,-6,4,3
1523946835883631,-2,-9,-23,-3,-21,-14,-5,-3
1523946835890653,-3,0,5,0,-14,-2,0,0
1523946835890653,0,0,5,8,42,9,6,0
1523946835907697,-6,-6,-16,-9,-42,-23,-10,-6
1523946835907697,-2,4,3,2,14,-5,-8,-4
1523946835908698,-3,-6,-8,-19,-16,-17,-3,-1
1523946835908698,5,6,12,19,-7,31,12,3
1523946835920731,1,2,-2,6,47,-3,6,3
1523946835920731,-1,2,7,2,-4,-5,1,1
1523946835929757,4,0,1,-6,-7,-20,-7,3
1523946835929757,-4,-4,0,-9,-19,6,-4,-8
1523946835943794,2,0,-2,8,18,12,6,1
1523946835943794,0,-2,0,-2,-14,-4,-7,-4
1523946835950816,-2,2,4,4,-13,-2,5,-1
1523946835950816,-5,-16,-32,-17,14,-3,-4,-2
1523946835968859,-2,4,16,12,-6,2,1,0
1523946835968859,-2,-9,-15,0,24,12,3,1
1523946835969861,-4,2,16,-4,-13,-2,-11,-6
1523946835969861,-1,3,-15,-9,-13,-13,4,2
1523946835980892,0,-1,2,13,0,5,-2,0
1523946835980892,-3,-3,8,-1,-5,11,6,-2
1523946835989914,2,4,-3,-1,21,-1,-8,-6
1523946835989914,2,-1,0,3,28,-5,1,1
1523946836003953,-3,-5,-4,-9,19,-6,0,0
1523946836003953,4,3,1,7,0,4,-2,-1
1523946836010974,-10,-12,-17,-3,20,-12,-6,-11
1523946836010974,2,2,11,-21,-69,28,9,4
1523946836027014,-1,-5,-18,17,3,3,-3,-1
1523946836027014,-1,-1,9,-6,-23,-8,-4,-2
1523946836033038,-4,-14,-54,-35,-15,-5,-14,-4
1523946836033038,7,16,43,47,26,13,17,7
1523946836041050,9,9,33,-25,-6,-31,1,8
1523946836041050,-4,-6,-20,10,-3,-14,-16,-7
1523946836050075,-2,0,5,-1,-39,1,-1,-1
1523946836050075,-5,-11,-8,7,-33,6,-5,-10
1523946836064118,-7,-10,-21,-16,20,-1,-11,-8
1523946836064118,2,4,12,5,-36,-19,1,3
1523946836071130,-2,-6,-16,-27,-33,9,12,-3
1523946836071130,-5,-7,-15,-1,21,-30,-20,-10
1523946836086171,-5,-3,-6,13,10,10,7,-2
1523946836086171,-1,-8,-20,-41,-80,-21,-7,-3
1523946836093190,-2,2,9,25,36,14,1,-4
1523946836093190,3,5,6,-10,14,12,9,7
1523946836101211,0,-3,-9,7,17,15,-3,-3
1523946836101211,-3,-2,-6,-5,35,-1,-1,-4
1523946836110236,4,1,11,2,-26,-2,-4,4
1523946836110236,-1,0,5,4,7,-17,-2,0
1523946836124272,-5,-8,-12,-7,6,-1,-6,-9
1523946836124272,1,7,16,52,15,-5,2,3
1523946836131298,2,-5,0,-12,13,20,14,9
1523946836131298,5,11,6,-6,33,-10,-6,2
1523946836146333,-4,-5,0,-7,-32,4,-2,-3
1523946836146333,1,4,6,16,21,20,9,5
1523946836153349,-1,-1,-3,7,-60,-41,-7,0
1523946836153349,0,0,3,0,59,55,13,2
1523946836160368,-5,-1,-5,8,-48,-5,-9,-6
1523946836160368,5,3,6,-24,21,6,3,0
1523946836169391,3,-2,-9,30,9,-7,-2,8
1523946836169391,-7,-5,-7,-16,-16,-15,-7,-9
1523946836183430,2,-6,-9,-24,-89,-8,3,2
1523946836183430,-5,-4,0,4,43,9,2,0
1523946836192454,-2,6,8,5,57,18,0,-4
1523946836192454,-2,-7,-6,1,-39,-21,-7,-6
1523946836206491,-6,-9,-5,6,22,7,-6,-7
1523946836206491,7,0,-7,-6,-27,-8,4,2
1523946836213510,-11,3,18,-3,4,-12,-10,-11
1523946836213510,-5,-10,-9,-20,-34,-14,-10,-8
1523946836229551,-1,-1,4,23,17,-22,-9,-5
1523946836229551,-1,-8,-15,-30,-12,20,10,6
1523946836231557,-4,2,7,17,17,-1,4,2
1523946836231557,3,1,-3,3,-15,-3,-9,-2
1523946836243591,-2,-2,-11,-18,-17,-30,2,2
1523946836243591,-7,-9,-2,-28,43,-15,-17,-8
1523946836252613,3,-3,-7,21,-8,53,10,4
1523946836252613,-7,-12,-16,-12,-8,-35,-10,-8
1523946836266650,-1,-1,-1,-19,-5,5,1,-3
1523946836266650,5,10,18,4,-12,-27,-4,1
1523946836273669,-3,-7,-21,-18,-6,-1,-9,-2
1523946836273669,-4,-8,-23,-37,-47,-5,-9,-8
1523946836289712,-3,0,-5,18,39,5,5,5
1523946836289712,-5,-2,1,-8,-12,0,-1,-5
1523946836291717,-1,-3,-5,-3,-29,-13,-4,-6
1523946836291717,7,5,-1,18,19,4,5,11
1523946836303749,4,2,14,-12,4,2,2,2
1523946836303749,-11,-11,-38,-10,-19,-5,-10,-8
1523946836312773,3,-2,-9,5,11,5,7,3
1523946836312773,3,0,-1,-27,-23,-14,6,5
1523946836326812,-7,-15,-30,-2,13,1,-17,-15
1523946836326812,0,8,19,8,-29,6,-7,-6
1523946836333833,1,-5,-6,12,-46,-27,5,2
1523946836333833,-8,-10,-26,-45,20,-6,-11,-7
1523946836349873,-1,-3,-14,3,-14,14,5,1
1523946836349873,4,5,23,13,8,0,5,7
1523946836350877,-4,-2,-17,-6,0,-9,-6,-2
1523946836350877,-4,-1,5,0,-10,-11,-7,-3
1523946836362906,-5,-8,-12,6,-53,-7,-22,-10
1523946836362906,-2,-2,3,29,-13,-5,-6,2
1523946836371931,1,5,4,-21,36,0,10,5
1523946836371931,4,4,1,42,46,27,11,10
1523946836386970,-2,3,17,-16,-4,-7,-2,-1
1523946836386970,0,-3,-21,-3,-21,-4,-22,-13
1523946836393989,8,4,10,-27,-37,0,5,12
1523946836393989,-7,-11,-4,47,87,31,12,0
1523946836410031,8,12,13,-12,-9,-5,3,6
1523946836410031,2,-6,-17,-1,-65,5,4,2
1523946836411034,-4,-4,-2,14,26,-14,-13,-10
1523946836411034,4,1,-4,-14,14,-14,-3,-7
1523946836423067,1,0,-12,3,29,19,11,6
1523946836423067,-6,-1,-3,-3,27,2,9,-3
1523946836432094,0,-9,-6,9,27,5,-4,-6
1523946836432094,0,6,3,-17,-45,-11,-7,-3
1523946836446129,-12,1,25,6,-16,-16,-4,0
1523946836446129,4,2,17,13,37,38,15,14
1523946836453147,-8,-10,-20,-3,21,-16,-10,-6
1523946836453147,-2,-6,-10,17,-33,-18,-11,-7
1523946836470192,8,12,41,1,10,10,22,5
1523946836470192,-7,-4,-8,-3,-4,-6,1,-5
1523946836471194,7,4,-1,3,-10,8,1,1
1523946836471194,-5,-11,-19,-15,-43,-9,-12,-3
1523946836483227,1,4,-3,9,-2,10,14,0
1523946836483227,-5,1,9,-3,15,-11,-22,-9
1523946836492254,8,7,8,5,16,20,20,14
1523946836492254,-5,-6,6,-3,-33,-35,-9,-4
1523946836506290,3,-3,-14,-24,14,14,2,4
1523946836506290,6,-1,-9,19,70,9,4,3
1523946836513313,-5,3,32,2,-19,-17,-12,-12
1523946836513313,-3,6,18,-1,-16,38,9,1
1523946836529352,1,-4,-28,10,-2,-36,-8,-2
1523946836529352,-3,-10,-22,-14,42,12,1,-4
1523946836531354,-10,-5,1,-7,-29,-27,-6,-11
1523946836531354,4,9,4,19,27,1,0,9
1523946836543388,8,1,-11,-23,-67,-32,-15,3
1523946836543388,7,7,20,39,76,18,14,6
1523946836552409,-4,7,15,-10,31,13,3,-6
1523946836552409,-4,2,13,-15,36,27,-4,-9
1523946836566447,1,-3,-13,35,42,14,6,1
1523946836566447,-4,-6,-4,-33,-60,-24,-14,-6
1523946836573465,3,-3,4,4,-35,1,8,10
1523946836573465,-1,2,12,8,1,-5,11,-3
1523946836589508,-4,-3,18,1,36,13,-12,-9
1523946836589508,-12,-10,-13,-15,-45,-7,0,-7
1523946836591514,-6,-3,-4,20,49,-1,-3,-5
1523946836591514,8,0,-10,-32,-68,-9,-15,-2
1523946836603547,-2,2,12,16,20,10,4,3
1523946836603547,-4,0,-4,-6,-60,-28,-5,-2
1523946836612576,4,0,-1,-15,20,35,-7,3
1523946836612576,-1,-7,-8,21,40,-20,6,5
1523946836626608,-2,-6,2,13,31,11,-14,-15
1523946836626608,-4,-3,-15,-1,-14,-8,-8,-8
1523946836633630,8,9,11,-11,-43,-42,-4,16
1523946836633630,5,6,12,21,61,54,28,15
1523946836649669,-7,-11,-27,-5,-4,4,2,-4
1523946836649669,0,3,15,3,-61,-3,13,4
1523946836651674,-7,-2,-10,4,19,-20,-16,-14
1523946836651674,0,-6,-21,-6,-49,-18,-5,2
1523946836663705,-7,2,0,-8,29,-2,5,-12
1523946836663705,-12,-14,-37,-8,-32,3,-10,-9
1523946836672730,8,-10,-9,-12,-22,15,-6,-1
1523946836672730,-8,9,5,0,2,-18,-9,-13
1523946836686768,3,6,8,11,11,17,4,8
1523946836686768,2,-1,3,-9,2,-10,2,1
1523946836693787,-5,-4,-16,-9,-3,11,7,-2
1523946836693787,-6,3,9,48,-3,-16,-16,-3
1523946836709831,7,-3,8,-5,7,-15,-8,0
1523946836709831,-5,-1,-6,-7,-21,-5,22,4
1523946836710832,-1,-3,-10,-1,10,18,-5,-3
1523946836710832,-1,-2,8,-32,-34,-6,-6,-2
1523946836723867,0,-4,-26,16,68,12,28,12
1523946836723867,5,8,25,11,20,-3,4,7
1523946836737903,-1,-6,-1,-27,-44,4,8,2
1523946836737903,-3,-9,-20,-22,-4,-13,1,-5
1523946836746928,0,-9,-25,15,-79,-7,-3,3
1523946836746928,4,5,30,4,20,5,-14,3
1523946836752946,-4,-3,-18,4,-1,-15,-3,-1
1523946836752946,1,5,18,4,18,2,-4,8
1523946836769989,3,1,0,-20,-28,-4,5,9
1523946836769989,0,-6,-25,3,38,4,-1,-1
1523946836770991,-9,-5,1,15,20,-11,-20,-18
1523946836770991,0,2,1,0,-49,0,6,-4
1523946836783023,2,0,-2,-8,-33,-7,0,6
1523946836783023,6,5,5,3,43,11,5,8
1523946836792049,-9,-17,-27,-10,-32,-32,-16,-11
1523946836792049,3,2,0,7,71,47,17,2
1523946836806085,-15,-2,12,-41,-107,-32,-17,-16
1523946836806085,17,12,2,27,113,42,21,15
1523946836814111,-4,-17,-28,-24,-18,38,-5,-9
1523946836814111,-8,9,38,17,51,-11,-8,-6
1523946836830153,-4,-12,-22,-10,-59,-23,-21,-12
1523946836830153,-6,-8,-22,-12,-56,-13,-12,-10
1523946836832156,6,10,27,-7,40,4,9,6
1523946836832156,0,3,4,38,-11,0,8,-5
1523946836843184,2,2,1,-14,26,13,6,6
1523946836843184,-2,2,9,-3,-25,-7,9,-1
1523946836852206,5,4,-2,10,37,8,15,11
1523946836852206,-6,-13,-27,-29,-48,-25,-7,-3
1523946836866245,0,5,20,7,51,4,-6,-6
1523946836866245,-5,-7,-32,-31,-9,5,-2,-3
1523946836873263,2,-1,13,40,-29,-13,-3,-8
1523946836873263,6,9,17,2,-25,2,18,11
1523946836889306,-6,-9,-14,-36,7,4,-9,-9
1523946836889306,7,-2,-11,2,-47,-12,4,7
1523946836891311,-4,9,6,19,35,4,-5,-13
1523946836891311,-1,-13,-17,-31,-27,-16,-5,8
1523946836903343,-2,2,8,-7,18,2,-4,3
1523946836903343,-4,-14,-26,-15,-60,-19,-18,-19
1523946836912368,2,3,11,12,2,-6,5,10
1523946836912368,-7,-14,-25,-3,-19,10,-16,-22
1523946836926407,-1,8,16,-9,12,-58,8,2
1523946836926407,-4,-12,-17,-2,39,73,-1,-2
1523946836933426,-3,-3,-14,-24,-28,-30,-13,-4
1523946836933426,-8,-10,-28,-18,-27,-5,-15,-11
1523946836949467,-7,-8,-5,19,6,-3,-6,-12
1523946836949467,-5,6,12,6,-4,-23,-3,-2
1523946836955481,-1,3,-9,-7,-26,6,14,5
1523946836955481,-4,-1,2,8,56,-3,-18,-27
1523946836963503,12,6,-26,35,-25,6,15,19
1523946836963503,-9,8,29,3,10,-11,4,3
1523946836972538,13,5,28,-19,15,5,-3,-1
1523946836972538,-5,-4,-8,5,19,-7,0,3
1523946836986565,3,-1,2,16,25,30,6,-3
1523946836986565,-10,-9,-6,-1,2,-10,-13,-16
1523946836993585,-4,0,-6,-8,-4,-16,-8,7
1523946836993585,12,8,1,10,17,30,4,15
1523946837008627,-7,-10,-7,-6,-42,0,1,-6
1523946837008627,-1,4,6,-5,13,-23,-2,6
1523946837015643,-3,-1,-4,4,30,24,3,-1
1523946837015643,-1,-10,-9,-17,-55,-26,0,1
1523946837023663,-3,-4,-9,28,67,28,1,-6
1523946837023663,1,1,-13,-12,-46,-32,-18,-5
1523946837032688,-5,0,0,-19,-5,-3,9,0
1523946837032688,1,3,7,5,6,1,3,9
1523946837046727,0,-4,-32,3,-26,-2,-13,-2
1523946837046727,-1,-1,25,17,38,-23,13,-6
1523946837053742,-6,-4,-1,21,28,0,-6,-6
1523946837053742,0,2,3,-23,-5,2,0,1
1523946837068782,7,8,18,11,-20,-7,-10,-3
1523946837068782,-12,-11,-25,-18,-8,11,0,-16
1523946837075805,17,5,-1,16,-31,-1,30,32
1523946837075805,-6,-18,-35,13,-15,-6,9,-7
1523946837082821,-3,-1,-7,-36,12,10,-1,-4
1523946837082821,-10,-16,-16,-10,24,-14,-30,-19
1523946837092848,-12,-5,-17,-15,-6,2,12,-20
1523946837092848,13,17,13,-5,-14,-14,10,30
1523946837106884,-2,-5,-3,-16,-38,-16,-7,-2
1523946837106884,10,13,19,13,56,60,17,15
1523946837113908,-10,-13,-22,-17,-35,-30,-32,-25
1523946837113908,-8,-12,-8,-20,-21,-43,-16,-8
1523946837128945,0,-7,-17,17,44,30,15,6
1523946837128945,13,3,5,-77,-56,-24,-7,9
1523946837135962,4,19,38,67,14,7,16,13
1523946837135962,3,11,18,0,2,6,-1,2
1523946837152004,0,-19,-24,-24,32,-15,2,4
1523946837152004,-8,-14,9,-3,-38,0,10,-10
1523946837154010,-11,-10,-15,-16,1,5,-14,-18
1523946837154010,-3,-5,-27,-6,-25,0,6,-3
1523946837167045,-6,6,11,-2,11,1,10,2
1523946837167045,8,10,7,38,30,10,2,3
1523946837173059,-1,-6,-10,-11,-25,-16,-9,-1
1523946837173059,-3,-2,2,10,27,23,4,-4
1523946837189103,-5,0,10,-1,-37,-16,-9,-12
1523946837189103,-11,-11,-34,0,42,32,-1,-4
1523946837196122,-3,2,22,-4,-35,-23,-16,-2
1523946837196122,8,-3,1,-1,1,-12,-11,-8
1523946837212166,3,1,21,-4,-27,-11,-11,4
1523946837212166,-1,-6,-7,18,13,-20,-16,-7
1523946837214170,-6,-7,-12,-30,-7,14,-5,-3
1523946837214170,-3,-5,-4,9,77,25,13,7
1523946837226203,5,0,-9,8,-7,-15,-22,-7
1523946837226203,-16,-2,13,-9,-49,-18,-5,-5
1523946837233222,14,11,17,-8,-6,1,-5,8
1523946837233222,-3,-5,-4,22,4,-2,-12,-9
1523946837249264,-3,5,8,-55,-56,8,15,1
1523946837249264,16,11,6,11,31,-2,6,21
1523946837256280,6,-2,1,2,-6,15,10,8
1523946837256280,-19,1,23,13,-11,-15,3,-20
1523946837272325,3,11,34,6,8,13,0,5
1523946837272325,8,-5,-7,15,-34,-17,10,6
1523946837274333,6,3,-6,-19,39,42,19,14
1523946837274333,1,-6,-27,-16,-46,-3,-6,-2
1523946837286361,-8,-8,-3,3,33,-6,-14,-9
1523946837286361,-1,8,18,17,-29,-16,2,-4
1523946837293381,-8,-1,5,6,42,0,-8,-19
1523946837293381,-4,-4,-16,-12,2,-11,-14,2
1523946837309423,6,6,-3,15,0,19,-1,7
1523946837309423,0,5,4,-9,-16,-18,4,2
1523946837316444,-3,-11,-9,0,-7,-23,-11,-12
1523946837316444,-5,6,6,5,24,12,-7,6
1523946837332485,-2,-4,-8,-16,-37,0,3,-1
1523946837332485,-2,-6,-7,6,12,-18,-14,-3
1523946837333487,-4,0,-3,7,13,19,-3,-3
1523946837333487,2,-3,-2,1,41,-19,-4,4
1523946837346522,6,5,4,24,50,-19,-3,3
1523946837346522,-12,-17,-30,-14,-12,26,-7,-13
1523946837353542,-2,-3,-13,25,-31,-27,-6,3
1523946837353542,-1,-11,-8,-53,-79,-18,-11,-7
1523946837368582,-14,-11,-16,25,31,15,4,-8
1523946837368582,1,6,6,0,-4,-8,-6,-1
1523946837375599,2,9,-1,-17,-17,-10,8,15
1523946837375599,6,2,11,16,-7,9,3,1
1523946837392645,4,-2,-7,-12,-20,4,3,-1
1523946837392645,-6,-7,-21,-9,-42,12,3,1
1523946837393647,-5,-12,-33,-1,22,14,-3,-14
1523946837393647,3,0,-3,6,-15,0,5,0
1523946837406681,10,18,22,21,60,28,12,19
1523946837406681,7,7,18,1,-7,3,20,11
1523946837413702,-16,-4,-10,-8,-34,6,-2,-2
1523946837413702,4,2,-5,9,23,2,-2,-6
1523946837428744,-13,-12,-18,-27,-19,-23,-16,-15
1523946837428744,6,9,6,1,26,-3,-5,3
1523946837435760,6,-2,-1,13,-34,14,11,10
1523946837435760,4,-2,-3,-10,23,7,7,-1
1523946837451802,-6,-8,-26,-20,-26,-10,-4,-8
1523946837451802,-7,-2,13,5,-35,-14,-10,-7
1523946837453806,-7,-14,-32,-18,11,-36,-18,-13
1523946837453806,0,-3,-12,-1,-13,-11,-13,-2
1523946837466842,-4,3,12,0,13,4,2,-6
1523946837466842,-3,-9,-20,-5,3,-15,-6,-2
1523946837472859,-3,-2,0,6,-19,-23,-13,-7
1523946837472859,4,8,18,25,42,29,27,16
1523946837488901,1,-16,-27,-9,-33,-24,-12,-3
1523946837488901,-5,-1,1,-17,4,-1,-1,-9
1523946837495919,5,6,16,23,62,6,19,19
1523946837495919,4,3,-1,-21,-87,-19,-4,1
1523946837511962,1,3,-1,9,10,13,4,4
1523946837511962,2,-10,-20,10,31,0,-9,-2
1523946837513966,23,5,13,-5,2,6,14,7
1523946837513966,-27,-11,-19,-7,-16,-8,-3,-11
1523946837527001,0,3,12,6,22,21,-11,-6
1523946837527001,4,-2,-15,-5,-49,-10,5,-1
1523946837533019,16,2,1,11,27,-5,1,6
1523946837533019,-24,-23,-39,-19,5,1,-14,-16
1523946837549061,-4,0,20,5,29,0,-5,-9
1523946837549061,-3,6,-3,-2,-21,-7,-5,-2
1523946837556080,4,-1,10,-10,-41,14,-5,-5
1523946837556080,14,11,27,21,8,10,19,21
1523946837572124,-10,-7,-11,-25,-2,2,-2,-5
1523946837572124,3,-4,-6,31,-25,-2,-3,3
1523946837574132,-8,-1,-7,-8,3,-13,-11,-8
1523946837574132,4,6,20,3,3,10,5,2
1523946837586159,17,-1,1,0,-26,-8,8,12
1523946837586159,-10,-4,1,-10,29,1,-5,-5
1523946837593177,-1,-8,-23,-17,-80,-16,-11,-9
1523946837593177,-6,5,12,21,66,13,4,8
1523946837609220,-8,-3,-5,7,17,32,11,-18
1523946837609220,-5,-6,-9,-26,-41,6,-2,2
1523946837616238,-5,-1,14,-8,42,-31,-15,-3
1523946837616238,8,5,3,30,-14,5,1,-2
1523946837632282,4,5,9,-14,-50,-59,-13,3
1523946837632282,-5,-12,-25,-8,68,31,-3,-9
1523946837634286,-20,-9,-11,-5,-48,11,10,-14
1523946837634286,13,-12,-18,6,-16,-3,-17,-5
1523946837646319,-8,4,4,-10,-78,-31,-6,-5
1523946837646319,7,9,16,12,-2,4,12,14
1523946837655345,-8,-15,-19,11,73,-19,-9,-4
1523946837655345,5,4,4,-18,-16,-28,-7,-1
1523946837669379,14,0,-1,10,-13,27,14,15
1523946837669379,2,2,6,-4,-12,-23,4,3
1523946837675405,-12,0,2,-2,4,25,4,-2
1523946837675405,18,-1,4,-7,4,3,-4,-11
1523946837692441,-13,-6,-15,0,-3,-24,-11,-2
1523946837692441,26,8,22,2,33,5,13,43
1523946837693445,14,-5,-7,8,-12,1,-2,4
1523946837693445,-33,-7,-13,-25,-34,6,-11,-24
1523946837714509,2,-1,-3,6,3,-5,-5,-25
1523946837714509,-8,-7,-15,-8,7,-9,-13,-17
1523946837716504,6,11,8,15,20,23,8,3
1523946837716504,-3,2,-6,-19,-27,-14,-6,3
1523946837729540,23,7,23,20,26,24,26,53
1523946837729540,-17,1,-7,-15,-49,-18,-3,-5
1523946837735555,6,5,5,25,88,19,5,9
1523946837735555,-7,-14,-9,-17,-62,-11,-21,-18
1523946837752602,-14,2,8,-8,18,37,12,-2
1523946837752602,7,-3,-7,6,3,0,4,2
1523946837753604,-2,7,19,-18,-37,-6,-1,3
1523946837753604,-9,-3,0,28,35,5,-2,0
1523946837765634,6,11,22,11,-6,-12,-12,-9
1523946837765634,15,-3,-10,-7,18,4,-2,-24
1523946837774661,-22,-7,-6,-6,-17,8,7,27
1523946837774661,8,10,15,-8,-40,-36,6,9
1523946837788699,0,-15,-31,-3,27,-2,4,-1
1523946837788699,-18,-10,-17,3,9,4,-19,-59
1523946837803738,37,10,3,-5,-60,-3,4,28
1523946837803738,7,4,-2,5,55,12,21,9
1523946837812764,-15,-8,1,-9,-42,-22,-20,-8
1523946837812764,-9,-7,-14,-7,-29,11,-5,-5
1523946837813764,-2,0,6,18,82,25,5,-19
1523946837813764,-7,2,24,1,-1,0,-3,-9
1523946837825798,23,3,-9,1,-10,-11,6,17
1523946837825798,-28,4,21,-3,3,12,1,-7
1523946837834819,2,-1,0,-24,-41,-30,-8,-10
1523946837834819,-4,-9,-26,0,14,7,-7,-9
1523946837848857,1,3,6,7,8,3,-1,-9
1523946837848857,5,-1,7,7,12,-20,-12,-1
1523946837855876,-33,-18,-25,-15,-16,16,-3,-30
1523946837855876,1,-11,-30,-5,10,13,4,25
1523946837871920,-4,-3,2,-4,28,-13,-7,-40
1523946837871920,7,-1,-18,8,-37,-5,0,22
1523946837873923,-7,6,19,-7,-17,-30,-7,-11
1523946837873923,-1,-10,-21,-4,-29,-23,-8,-2
1523946837885956,-4,0,-2,4,11,35,7,9
1523946837885956,3,4,5,10,36,23,6,2
1523946837894985,-2,-4,-4,-11,-36,-34,-10,-6
1523946837894985,-3,6,11,11,26,20,1,-1
1523946837909019,-12,-6,-15,0,-21,-8,-7,-14
1523946837909019,12,2,9,5,12,-9,0,16
1523946837916039,-2,-8,-33,-32,-88,-2,-7,-7
1523946837916039,-2,11,24,13,32,-9,5,18
1523946837931078,13,-6,-8,16,19,9,-6,-5
1523946837931078,-18,-19,-15,-32,14,-3,-2,-17
1523946837938094,8,-1,-14,11,-10,-6,1,5
1523946837938094,7,2,4,-17,-16,14,2,-7
1523946837946114,-5,1,4,4,-9,-51,4,10
1523946837946114,6,-1,-11,2,56,38,-6,9
1523946837955139,-4,5,5,8,60,2,7,1
1523946837955139,-5,-5,-2,-11,-27,-8,-8,-16
1523946837977199,-7,-4,-6,-1,-73,2,-8,-30
1523946837977199,12,3,-7,-2,-46,-32,1,68
1523946837979205,-4,7,27,10,32,35,20,-7
1523946837979205,-9,-6,11,9,5,-3,2,0
1523946837991237,3,-1,-10,-8,11,6,0,-8
1523946837991237,-6,-2,0,7,-9,-1,-3,-22
1523946837998256,7,-8,1,-9,-27,-2,-11,11
1523946837998256,2,6,-3,0,22,-4,3,11
1523946838006280,-19,-3,-18,-12,-2,-3,-10,-9
1523946838006280,6,-1,16,11,34,5,9,4
1523946838015301,4,0,5,7,7,-30,-6,6
1523946838015301,0,2,-4,-2,-56,50,3,-15
1523946838029342,-6,-1,20,12,33,17,18,18
1523946838029342,13,9,11,2,25,26,1,5
1523946838036354,-8,-7,-15,-7,-17,-49,-13,-11
1523946838036354,3,10,12,-1,-16,-4,-1,-8
1523946838051396,0,-23,-32,-5,8,-4,-13,10
1523946838051396,-40,-6,-14,-6,-39,-8,2,-33
1523946838058415,10,11,23,9,13,27,12,28
1523946838058415,-3,-18,-14,-1,-16,-14,-6,-5
1523946838065433,17,16,3,-12,-39,17,0,15
1523946838065433,15,10,16,21,41,-11,12,-11
1523946838074458,-33,-11,0,-7,6,-2,-19,-29
1523946838074458,5,-4,1,-3,15,-8,7,1
1523946838089496,-1,-3,-7,9,-14,-4,2,15
1523946838089496,18,4,13,-7,-32,-31,-17,0
1523946838095523,-14,-11,-3,8,8,24,14,0
1523946838095523,10,13,-2,-4,29,0,6,15
1523946838111560,-10,0,5,-8,-15,0,-6,-21
1523946838111560,-7,-5,-6,-13,-36,-17,-9,-8
1523946838118576,0,-16,-22,9,60,-2,-8,-4
1523946838118576,-13,-22,-35,-5,6,3,-4,-11
1523946838134615,1,-3,7,5,40,-11,0,4
1523946838134615,-1,6,7,-4,9,-19,-15,-4
1523946838136623,5,4,-6,-8,-36,12,4,-1
1523946838136623,-2,-4,4,8,-7,-32,-7,-3
1523946838148655,-11,-16,-22,-17,-1,28,-2,-8
1523946838148655,-1,6,2,8,-21,3,5,3
1523946838155672,10,3,5,-1,2,1,1,1
1523946838155672,-35,-7,-2,-9,-1,-7,-13,-8
1523946838171715,-11,10,11,4,-46,-25,-7,-3
1523946838171715,15,12,-7,16,41,19,14,27
1523946838178733,2,-24,-19,-7,-37,-2,-9,-21
1523946838178733,23,23,30,19,46,21,22,34
1523946838194777,1,-15,-20,-15,-27,-9,-3,-16
1523946838194777,-9,-13,-8,-19,-49,0,-5,-4
1523946838196782,14,11,17,13,33,-14,-7,9
1523946838196782,-19,-34,-34,-15,-45,-19,-18,-23
1523946838208816,-1,14,8,0,47,34,3,3
1523946838208816,15,7,12,8,28,-6,6,13
1523946838215834,-15,3,-11,-6,-29,-16,-9,-5
1523946838215834,26,11,18,3,-9,-16,-3,5
1523946838231876,-20,-9,3,-4,-3,1,3,4
1523946838231876,8,-21,-35,-7,-49,13,0,-17
1523946838237891,-5,17,18,-5,16,15,9,8
1523946838237891,-22,2,-15,5,22,-15,-13,-11
1523946838254937,9,2,3,-10,-29,-7,2,13
1523946838254937,-11,-5,-8,8,45,2,0,-1
1523946838256946,1,-4,-2,0,-3,0,-3,-15
1523946838256946,4,-7,8,0,6,7,2,24
1523946838268974,8,2,-8,-18,-36,-14,-3,-31
1523946838268974,-11,-5,-14,-5,-13,-1,-4,4
1523946838275993,6,-7,-7,-2,-3,-5,-7,-26
1523946838275993,-4,8,9,15,16,12,8,29
1523946838291042,0,-16,-13,-4,7,-9,3,1
1523946838291042,-2,-6,2,-8,-2,-2,-1,-1
1523946838298062,8,7,6,5,-6,16,16,16
1523946838298062,-1,-14,-22,-19,-42,-5,-18,-32
1523946838315098,4,6,8,11,42,-16,-3,22
1523946838315098,4,8,15,21,12,21,11,3
1523946838316099,-10,-21,-29,-45,-37,-2,1,4
1523946838316099,14,13,18,20,15,8,-3,-16
1523946838329134,-13,14,-2,-12,4,-7,1,5
1523946838329134,2,6,23,-1,-3,16,4,20
1523946838336152,2,0,-9,5,-6,-1,0,1
1523946838336152,-1,-11,-5,-10,10,6,2,14
1523946838351194,1,-3,-23,9,-16,4,1,-14
1523946838351194,-31,2,4,-7,-20,-23,-31,-57
1523946838358211,78,1,-10,9,33,15,37,87
1523946838358211,-42,12,18,-3,4,3,5,-44
1523946838374256,22,6,14,9,18,-1,-4,7
1523946838374256,-6,-18,-18,1,21,-19,-5,-9
1523946838376259,-19,7,20,-5,-48,3,-16,-8
1523946838376259,30,9,-7,-3,4,3,3,9
1523946838388292,0,8,4,11,23,4,7,15
1523946838388292,-7,-10,-9,-28,-3,-7,-3,5
1523946838397316,-7,-1,-5,5,4,8,1,-13
1523946838397316,2,-6,-9,5,-19,4,6,4
1523946838411359,-11,-1,15,-8,-19,-6,-9,-14
1523946838411359,14,-3,-7,7,-4,2,7,5
1523946838418374,-21,-9,-26,1,35,-8,-12,-19
1523946838418374,-7,4,7,-16,-28,-14,-7,-18
1523946838434414,5,-6,5,3,-15,-7,1,28
1523946838434414,-2,4,8,-4,-23,13,6,-8
1523946838436419,-10,5,7,6,-19,-23,-8,7
1523946838436419,-10,-6,-13,-3,28,4,7,18
1523946838449454,11,-2,-1,17,31,15,-9,-15
1523946838449454,-4,1,-1,-12,-45,-9,3,10
1523946838455470,-16,-3,-10,-4,-5,-7,-14,-31
1523946838455470,6,0,3,6,4,-9,-5,0
1523946838471513,-12,-23,-21,-1,-13,0,1,-6
1523946838471513,-7,-3,-12,1,5,-2,-2,-31
1523946838478531,-1,-1,8,1,2,0,-3,31
1523946838478531,4,1,5,-15,-33,-9,-4,-2
1523946838494575,6,13,23,18,51,-1,-1,5
1523946838494575,12,-5,-24,5,19,6,12,-11
1523946838496583,-26,8,16,-5,-25,-5,-6,-25
1523946838496583,14,6,18,10,3,-4,-1,-17
1523946838508613,-13,-10,-28,-17,-60,-1,1,18
1523946838508613,3,-15,-9,11,76,-7,-12,14
1523946838517634,-4,-6,4,-47,-57,-24,-12,-9
1523946838517634,-8,-8,-5,27,30,-4,20,-1
1523946838531674,-1,-1,6,2,79,70,17,-16
1523946838531674,13,4,-5,-10,-52,-6,2,48
1523946838538690,-17,-24,-28,4,11,5,-7,-17
1523946838538690,20,15,23,-18,-17,-23,-18,3
1523946838554735,-32,-9,-16,-30,-48,-31,-19,-20
1523946838554735,28,-3,7,20,26,7,9,-55
1523946838556739,-43,-3,-19,22,-3,4,-8,-41
1523946838556739,8,-1,5,-16,-28,-5,-4,17
1523946838568771,-6,-10,-35,18,45,-15,-8,-11
1523946838568771,-23,-17,-21,-18,-46,-14,-25,-12
1523946838577795,13,7,5,3,52,-8,2,-2
1523946838577795,-4,-28,-28,-21,-26,10,-4,-8
1523946838591835,0,3,15,3,41,10,-6,1
1523946838591835,-20,-8,-10,-22,-21,-15,-7,-12
1523946838597850,32,5,0,18,56,16,19,32
1523946838597850,-26,-3,-17,-7,-37,-3,-4,9
1523946838614895,16,-7,0,-7,-33,-16,-7,-42
1523946838614895,-18,-18,-25,5,1,-12,-16,13
1523946838615898,20,13,30,1,-27,21,20,-2
1523946838615898,21,26,-6,12,25,14,3,0
1523946838627928,-21,-13,-4,-26,-59,-35,-15,-6
1523946838627928,1,9,13,17,64,12,12,15
1523946838636952,-8,-4,-5,-16,-45,-24,-21,-18
1523946838636952,29,-14,-22,10,52,17,11,4
1523946838651993,3,2,-3,1,-4,-1,3,5
1523946838651993,-1,-3,0,8,-3,9,5,1
1523946838658010,-3,-5,-2,-10,4,2,-4,9
1523946838658010,1,28,47,26,-36,-43,-20,-5
1523946838675056,2,-7,-8,10,19,33,10,6
1523946838675056,-11,-6,-1,-16,-11,9,-18,-6
1523946838676060,-2,10,7,25,16,4,32,73
1523946838676060,-1,-4,-16,-17,9,-8,-15,-26
1523946838688092,28,10,19,6,-20,-7,13,8
1523946838688092,-5,2,5,-6,-30,-2,4,-26
1523946838697114,7,-5,-3,3,18,-4,-19,-4
1523946838697114,-12,-29,-37,-20,-4,12,0,-6
1523946838711154,-15,7,10,4,19,-6,0,9
1523946838711154,14,16,8,6,-36,-3,7,29
1523946838718168,-15,-18,-14,-9,23,10,-8,-29
1523946838718168,-13,-12,-5,6,56,14,8,0
1523946838735214,13,1,-5,1,-55,-10,-3,2
1523946838735214,-4,-13,-3,-15,-13,-17,-14,-20
1523946838736215,0,16,12,5,-11,-21,-17,-10
1523946838736215,-13,-30,-35,-14,35,51,30,7
1523946838748248,-17,0,-5,-14,-11,-9,-13,-13
1523946838748248,37,19,23,18,-38,-14,5,32
1523946838757275,-36,-6,-8,-6,9,16,17,-1
1523946838757275,-22,-23,-21,-9,29,-3,-19,-10
1523946838771312,15,7,-5,6,14,-24,-11,-14
1523946838771312,-35,3,6,-12,-7,7,9,-44
1523946838778331,26,-13,3,1,-20,-7,-10,-11
1523946838778331,2,33,23,15,-11,2,5,-8
1523946838795374,10,-9,2,7,1,13,3,14
1523946838795374,-3,7,-3,-17,-16,-10,-2,12
1523946838800387,6,-14,-16,-9,13,1,-9,0
1523946838800387,-5,4,1,12,3,7,5,6
1523946838808408,39,15,9,3,-10,-41,-28,9
1523946838808408,-62,-16,12,5,18,17,31,30
1523946838817432,22,14,-10,2,-21,2,11,11
1523946838817432,-16,-31,-26,-5,0,6,0,8
1523946838831468,1,-6,0,-13,5,13,19,12
1523946838831468,26,23,11,7,35,8,-12,-7
1523946838838489,-4,-2,6,4,-36,-14,-2,7
1523946838838489,-1,13,22,16,31,-7,-3,-14
1523946838853528,-7,-26,-38,-43,-45,-16,-2,7
1523946838853528,4,5,2,9,70,20,11,4
1523946838860549,-15,-15,-15,-6,-4,-2,-17,-28
1523946838860549,21,13,13,-6,-11,-6,17,35
1523946838868567,-7,14,15,11,-19,8,-4,-24
1523946838868567,17,-12,-17,-4,-12,5,-4,-17
1523946838877596,15,-3,-9,-14,-1,7,4,9
1523946838877596,-14,-14,-7,-15,-19,-21,-11,-37
1523946838891632,-34,18,34,7,-12,10,-2,-17
1523946838891632,5,-17,-17,-9,2,-15,-18,-20
1523946838898652,12,-9,-9,14,20,2,10,22
1523946838898652,10,13,-3,-4,-40,4,9,11
1523946838913689,-8,-21,-16,19,38,6,-9,-20
1523946838913689,8,2,-7,-1,-36,-24,-10,14
1523946838920709,4,-2,8,-10,-31,6,1,-14
1523946838920709,-1,-1,8,22,25,15,0,12
1523946838928729,-11,-12,-29,-10,18,-1,-2,-1
1523946838928729,4,11,20,17,4,8,0,5
1523946838937752,5,7,4,-2,22,-18,-18,-5
1523946838937752,-17,-22,-37,-55,-17,15,6,-24
1523946838951790,-38,-13,-8,-9,-17,6,-4,-11
1523946838951790,13,-7,-25,-7,8,-7,-2,-8
1523946838958808,-7,11,27,3,-30,-16,-10,-5
1523946838958808,3,8,7,16,25,6,-12,-13
1523946838973850,29,8,9,26,28,9,14,-1
1523946838973850,-20,-17,-35,-14,4,-9,-6,25
1523946838980872,-12,-4,1,-52,-19,3,3,-18
1523946838980872,11,17,0,-72,-20,-19,-4,29
1523946838988888,-23,-14,-9,20,-19,-7,-4,-11
1523946838988888,13,-2,1,56,-12,8,5,15
1523946838996911,-8,-4,-4,127,45,3,-2,0
1523946838996911,12,15,41,120,6,-9,-13,-7
1523946839011951,30,-10,-5,19,17,5,23,48
1523946839011951,-27,4,-8,-41,-3,5,-5,0
1523946839017967,-36,-11,-17,-52,4,-1,4,16
1523946839017967,14,-3,12,-75,-24,-10,-9,-56
1523946839034008,7,3,-20,-88,-43,-8,-13,1
1523946839034008,-4,-13,-1,-76,7,-4,2,-16
1523946839041025,2,-12,-35,-38,13,1,-11,-4
1523946839041025,11,2,13,28,-7,-26,-3,28
1523946839057073,-4,10,13,24,-7,-1,0,24
1523946839057073,28,8,19,71,-23,3,4,-18
1523946839059075,-29,-25,-33,69,28,17,3,-37
1523946839059075,15,-6,-2,71,46,1,-5,9
1523946839071110,-62,11,8,36,20,0,8,-22
1523946839071110,-4,5,-2,-30,-30,2,4,5
1523946839079131,23,13,31,-40,15,-6,4,8
1523946839079131,0,-24,-28,-61,-40,13,-2,-4
1523946839094167,22,-7,-14,-39,3,-13,-10,-8
1523946839094167,9,-6,-3,-43,-7,-6,-2,4
1523946839101188,-22,12,2,-57,-27,-20,-15,-20
1523946839101188,-25,-25,-25,-8,22,20,22,11
1523946839117228,27,13,17,-3,14,11,-1,16
1523946839117228,-6,-6,-5,-39,9,-1,-3,-27
1523946839119234,-18,2,2,42,-6,4,7,-2
1523946839119234,-1,0,7,56,-38,-16,-15,2
1523946839131266,-5,-3,-7,33,5,-1,-6,8
1523946839131266,24,2,2,36,18,8,18,-6
1523946839138289,25,14,15,-51,-11,1,1,10
1523946839138289,-25,-6,-11,-40,0,-7,-10,-18
1523946839154329,38,1,3,-16,2,7,8,13
1523946839154329,-13,2,11,26,13,-2,-8,-7
1523946839161349,19,3,4,14,-43,-9,-10,-3
1523946839161349,3,3,7,26,20,27,21,-3
1523946839177390,3,-26,-38,19,14,-17,-12,-15
1523946839177390,-2,-5,0,21,4,0,-1,-11
1523946839178394,-7,12,15,-33,-13,-3,-5,5
1523946839178394,19,8,-14,-45,-39,-19,2,15
1523946839191428,-15,-5,-2,-40,13,14,9,1
1523946839191428,-6,-14,-36,-60,-6,-2,-9,8
1523946839198447,23,2,12,31,-37,10,13,23
1523946839198447,-14,8,19,56,33,-6,-6,-9
1523946839214493,3,6,8,28,-38,-9,-6,-6
1523946839214493,-31,-5,12,13,-19,-10,-9,-13
1523946839220504,4,-10,-3,-13,41,3,-2,-14
1523946839220504,-6,3,13,-11,-29,-4,-9,10
1523946839237563,-15,-6,-9,7,25,9,0,-28
1523946839237563,17,9,5,48,8,10,28,77
1523946839238552,4,26,1,-7,9,-8,-5,6
1523946839238552,11,-27,10,-12,8,4,-2,-29
1523946839251586,1,-6,-26,8,8,-3,3,18
1523946839251586,-18,6,10,-4,-10,2,-12,-22
1523946839258609,1,-11,-14,1,-14,-12,0,-14
1523946839258609,28,17,30,7,13,2,-5,27
1523946839273650,-50,-27,-38,-10,2,20,18,-11
1523946839273650,9,-14,1,29,17,-6,-2,-5
1523946839280672,-2,-1,-12,11,2,9,1,6
1523946839280672,-29,17,-19,-16,-6,-6,-13,-4
1523946839298711,21,6,16,-6,-4,-14,-6,10
1523946839298711,-9,-10,-21,-4,-16,-6,-13,-21
1523946839299714,-6,-1,19,38,26,7,9,-7
1523946839299714,-2,11,23,-20,-46,0,8,-6
1523946839310743,8,-9,-2,16,-12,14,-6,2
1523946839310743,1,4,-15,-19,25,20,5,18
1523946839319767,11,0,9,1,4,-10,-3,4
1523946839319767,-9,-15,-10,13,13,-6,-1,-8
1523946839333807,-9,7,30,34,20,-11,-5,-16
1523946839333807,-1,-4,-4,58,-42,-15,-16,-15
1523946839340827,1,-4,-4,49,22,-7,8,15
1523946839340827,-11,-1,-16,-31,15,13,-2,-2
1523946839356871,3,5,9,-63,-65,-21,6,3
1523946839356871,6,7,-1,-59,-41,-27,-15,7
1523946839358873,12,-8,-15,-63,-13,58,14,15
1523946839358873,-14,6,1,52,-4,-17,-9,14
1523946839370905,4,-1,16,54,0,-27,-14,-10
1523946839370905,-4,-14,-28,-14,-12,-18,-9,-8
1523946839379931,-4,-3,0,-45,32,-4,2,-18
1523946839379931,-6,0,11,-49,22,2,-4,-6
1523946839393965,15,13,15,-95,23,0,12,19
1523946839393965,-9,-5,-9,-4,22,-7,-9,-10
1523946839400982,-7,-7,-18,-26,-36,-17,-15,-17
1523946839400982,12,7,-2,-3,-16,-18,19,27
1523946839417028,-7,-7,-18,1,-43,-19,-19,0
1523946839417028,14,7,17,28,12,33,13,-17
1523946839419030,-15,-7,12,0,10,16,-3,17
1523946839419030,0,1,22,11,31,-16,-11,-14
1523946839431064,-1,1,-9,9,49,44,13,4
1523946839431064,5,-3,14,5,8,-26,-6,-3
1523946839440089,-7,-7,-31,-15,36,68,12,-11
1523946839440089,-3,0,-18,22,-38,-28,6,-4
1523946839454127,26,10,2,62,-44,-30,-8,7
1523946839454127,-37,-10,-41,27,-70,-26,-14,-8
1523946839461152,10,-15,-24,38,-74,-40,-12,4
1523946839461152,-37,0,11,30,-34,11,2,-25
1523946839477190,-2,-5,30,-24,20,-3,-14,-18
1523946839477190,9,6,18,-44,70,27,27,26
1523946839479191,8,5,-20,47,54,-14,-5,5
1523946839479191,5,-11,-38,27,-16,9,-4,3
1523946839491225,-12,-12,-8,-12,8,-2,-3,-13
1523946839491225,-3,4,11,-54,7,6,-1,-1
1523946839500247,0,9,28,-93,3,-5,6,5
1523946839500247,0,6,16,-128,-3,3,1,-4
1523946839514285,5,2,-14,-42,-10,5,8,5
1523946839514285,15,13,28,26,-33,-8,-1,12
1523946839521303,-4,-6,3,39,-2,0,6,1
1523946839521303,18,-8,-30,63,27,9,-6,2
1523946839537346,-47,-13,-31,48,-13,-5,-7,-31
1523946839537346,2,-7,-10,20,12,5,7,7
1523946839538348,3,4,27,29,-20,-22,-9,27
1523946839538348,12,3,9,25,-7,5,-4,-11
1523946839550381,8,0,5,12,-16,-10,11,14
1523946839550381,-18,-10,-8,-10,10,5,-21,-18
1523946839560409,-3,1,0,14,-1,24,13,-33
1523946839560409,18,0,-9,0,-2,8,-2,24
1523946839574445,-23,-4,-3,-15,6,4,-3,1
1523946839574445,21,18,20,-1,13,6,1,-12
1523946839580463,-15,-2,0,1,-15,-24,-16,-32
1523946839580463,17,3,-7,-7,6,3,22,54
1523946839597508,5,-4,-6,-18,1,8,-1,-6
1523946839597508,10,0,13,8,-26,-14,8,50
1523946839598508,-12,-5,-14,-5,3,-15,-17,-44
1523946839598508,9,-1,2,-3,4,6,-2,13
1523946839610541,28,-7,-11,-8,7,5,10,26
1523946839610541,-41,2,12,2,-14,10,11,-15
1523946839619565,8,-4,-20,-6,3,-12,-6,8
1523946839619565,-20,-11,7,3,-12,-14,-17,-24
1523946839634605,18,13,13,2,14,7,-3,28
1523946839634605,-11,-8,-15,-4,1,2,-2,-25
1523946839640621,10,9,15,6,-12,-13,12,66
1523946839640621,-8,-9,-21,-11,12,-1,-21,-67
1523946839656665,-28,-4,3,3,-20,-11,-12,-27
1523946839656665,76,8,-3,-6,-1,18,21,80
1523946839658669,-108,-19,-26,-8,-26,-25,-32,-27
1523946839658669,61,44,28,-7,9,14,46,43
1523946839670701,-48,-68,-50,2,-5,-21,-26,-67
1523946839670701,10,16,19,0,2,-11,-19,-14
1523946839679728,1,-14,-20,7,3,1,-21,-5
1523946839679728,-9,0,15,18,6,13,11,16
1523946839693769,16,10,-14,-23,3,16,9,-20
1523946839693769,-21,-15,-14,1,19,8,16,-8
1523946839700782,37,11,26,8,25,8,13,31
1523946839700782,-57,-37,-36,-8,30,-35,-38,-61
1523946839716822,12,16,19,6,-18,8,9,2
1523946839716822,-4,15,29,2,-1,1,-12,0
1523946839718828,25,-3,-23,-22,18,4,9,-11
1523946839718828,-9,-9,-12,6,-33,-7,-16,-7
1523946839730860,2,30,11,5,23,-32,15,40
1523946839730860,14,-46,-25,-17,-56,-7,-2,-16
1523946839739887,-25,14,11,19,16,31,10,-5
1523946839739887,-3,-5,-3,-9,-51,26,3,22
1523946839753923,17,7,32,9,31,29,-6,-21
1523946839753923,-48,-19,-39,-1,28,-24,-21,-57
1523946839760943,94,29,35,5,-2,-4,34,85
1523946839760943,-82,-19,-27,-6,-24,-24,-26,-45
1523946839776985,32,41,16,-11,-30,-6,-4,-14
1523946839776985,11,-14,15,23,23,22,14,-84
1523946839778988,-19,-9,-15,-14,23,-9,-10,96
1523946839778988,83,66,19,-9,-6,-2,32,48
1523946839791022,2,-20,-31,12,-8,-26,-6,16
1523946839791022,-29,19,-10,-2,1,9,-18,-6
1523946839800045,5,-21,-6,6,-46,6,-17,-63
1523946839800045,2,-46,14,-15,-2,32,16,-15
1523946839814081,-15,15,34,0,20,2,-21,32
1523946839814081,33,1,12,-1,-4,15,13,22
1523946839821100,-14,17,31,5,32,-14,-7,-20
1523946839821100,-2,-7,-11,-5,-16,-32,-10,-14
1523946839836140,-4,-16,-25,4,35,20,1,-24
1523946839836140,31,1,5,11,1,-3,5,58
1523946839843158,-72,-37,-40,-3,-38,2,20,-65
1523946839843158,93,38,6,-10,29,-14,0,31
1523946839851180,-45,-22,-21,-13,-38,-13,-14,-35
1523946839851180,-6,21,4,7,32,-9,-6,31
1523946839860205,-24,-22,-23,-10,-73,-25,-27,-24
1523946839860205,-11,-14,-9,9,-1,-2,10,-20
1523946839874243,19,19,10,9,26,28,9,24
1523946839874243,3,-11,-20,5,11,9,-7,19
1523946839881264,10,25,10,6,-34,0,-4,-28
1523946839881264,-38,-18,13,6,37,-6,-20,-30
1523946839898308,25,13,2,-4,-35,-6,19,30
1523946839898308,-21,2,1,-11,30,-3,2,1
1523946839903319,26,-29,-7,-7,4,-6,5,-1
1523946839903319,9,27,4,7,10,10,-1,13
1523946839910338,-62,26,-29,-18,-3,-11,-4,-21
1523946839910338,28,-9,0,-2,-9,-7,1,15
1523946839919362,7,10,25,6,-78,-4,0,10
1523946839919362,6,-18,-17,-9,40,0,9,27
1523946839934401,5,-6,3,1,-54,7,-9,-9
1523946839934401,-5,-7,-6,9,-29,-10,-6,-20
1523946839941421,-4,23,29,3,-9,-15,-18,-20
1523946839941421,-28,-54,-14,-13,-6,0,-5,-18
1523946839956463,44,6,-4,3,36,6,9,24
1523946839956463,-35,-5,-34,-23,-24,-2,2,-14
1523946839963486,12,-2,-10,6,2,5,8,2
1523946839963486,-28,-4,9,3,6,-2,-6,-10
1523946839970505,5,-9,0,5,-18,-6,-11,3
1523946839970505,7,1,5,0,10,0,10,-2
1523946839979523,13,18,22,-19,18,6,13,42
1523946839979523,-8,9,-13,9,-3,3,-5,-8
1523946839994565,-3,-36,17,6,-4,-15,-15,14
1523946839994565,-57,23,21,-6,-28,-17,-22,-90
1523946840000577,27,-48,-59,-15,32,21,14,12
1523946840000577,-2,60,56,13,-11,-2,-1,12
1523946840016620,-6,-24,-12,-3,-17,-1,2,4
1523946840016620,14,26,11,-8,13,-8,-1,17
1523946840023640,-7,-18,-5,-1,6,-1,-2,-15
1523946840023640,-3,-23,-15,13,-29,-4,-9,-3
1523946840039686,4,4,17,-6,64,4,3,-11
1523946840039686,1,-10,-4,6,28,2,-5,1
1523946840041687,-2,2,-39,-8,7,7,-1,-16
1523946840041687,26,19,-7,-4,-27,2,11,15
1523946840053720,-15,-44,2,4,0,-4,0,-3
1523946840053720,1,2,-13,0,13,0,3,17
1523946840060746,-8,2,8,18,47,-11,-20,-34
1523946840060746,28,17,8,-8,-2,-1,0,11
1523946840076780,-1,5,-9,-13,-9,5,3,-16
1523946840076780,-4,-8,-27,-9,-41,-1,9,17
1523946840083799,6,-5,-19,4,11,-5,-9,-7
1523946840083799,-20,-2,-7,1,3,2,0,-5
1523946840099841,22,16,4,-12,-18,2,6,1
1523946840099841,5,-34,-22,-7,37,-12,-15,-7
1523946840100843,-3,40,38,0,-5,2,4,-3
1523946840100843,-24,-39,-9,6,4,-1,-9,-8
1523946840113878,40,50,18,-18,-7,3,8,28
1523946840113878,66,-54,-47,-1,-16,-2,-8,55
1523946840120898,-31,56,80,-4,5,-4,11,-47
1523946840120898,51,39,-40,-8,5,-3,-12,10
1523946840136940,21,-45,-6,-8,15,-4,-8,0
1523946840136940,-8,7,-5,-10,-5,-3,-14,-33
1523946840142963,-22,-6,-40,-23,21,2,13,59
1523946840142963,-54,-49,9,26,-54,-12,-13,-34
1523946840160003,1,32,-9,7,46,3,-2,-9
1523946840160003,-2,22,31,3,-48,-1,-5,-12
1523946840161008,29,-20,-15,-9,6,-1,-1,7
1523946840161008,-32,-26,-4,3,-17,0,2,-16
1523946840174038,20,-5,-6,3,-25,-6,-4,23
1523946840174038,-29,1,33,19,19,11,14,-14
1523946840181060,10,27,-2,4,-33,-13,-16,-19
1523946840181060,35,-20,-29,-13,11,5,14,37
1523946840196101,-20,-8,-12,19,15,14,7,-12
1523946840196101,14,12,11,-3,12,0,1,9
1523946840203116,-24,-7,2,1,-13,-3,-3,-19
1523946840203116,34,5,-6,0,12,-4,-6,6
1523946840220161,-28,-20,4,12,20,-1,-3,-5
1523946840220161,7,76,3,-17,-53,0,5,14
1523946840221164,21,-42,-26,37,14,0,2,8
1523946840221164,53,-38,-35,-16,9,2,-1,-6
1523946840234199,-23,-15,14,-8,-12,-10,-15,-23
1523946840234199,23,2,54,-9,-17,1,7,27
1523946840241221,60,13,27,8,1,-21,-1,32
1523946840241221,-121,-36,-12,-13,-8,-5,-18,-82
1523946840256261,60,22,-9,12,-11,24,9,18
1523946840256261,1,-19,-21,-3,-2,4,-5,-5
1523946840263284,-11,-1,-16,-11,5,4,1,-3
1523946840263284,3,17,19,1,2,-6,1,5
1523946840280323,-18,9,-5,-2,-20,-6,7,-1
1523946840280323,-28,-14,-5,1,-9,-9,-9,-20
1523946840281324,-1,-6,-4,-3,-8,0,5,3
1523946840281324,19,31,14,-5,2,-5,5,22
1523946840293356,-30,-18,-9,5,55,6,-11,-19
1523946840293356,6,-12,2,11,-21,14,4,2
1523946840302379,6,1,12,0,2,9,-3,-2
1523946840302379,-3,13,24,-4,0,2,8,12
1523946840316418,-10,3,-13,-2,-36,-35,-5,-8
1523946840316418,12,-16,-14,-4,21,-4,-15,-14
1523946840323440,-22,-25,8,-11,3,0,-9,5
1523946840323440,11,57,5,3,-5,-8,1,10
1523946840339480,-15,-20,12,2,-25,7,10,-13
1523946840339480,20,9,1,1,19,4,15,21
1523946840341484,-3,-5,-23,-2,-14,-1,-3,-18
1523946840341484,4,-4,0,15,17,9,-5,-2
1523946840354519,1,2,-7,-9,-33,-12,-11,-13
1523946840354519,-14,2,-2,12,11,-3,1,-7
1523946840360540,13,11,9,0,23,12,9,1
1523946840360540,-21,-14,-3,7,-14,-1,-4,4
1523946840376580,19,17,14,-5,6,-3,-3,4
1523946840376580,-7,-37,-2,1,3,4,0,22
1523946840383595,-12,22,-19,-1,-12,-11,-7,-26
1523946840383595,-47,-7,0,-5,-4,-3,5,-8
1523946840399638,9,-3,8,0,-8,-4,3,14
1523946840399638,-1,3,-15,-1,1,-8,-8,1
1523946840401643,29,11,-8,-2,4,6,-7,5
1523946840401643,26,-24,13,-3,0,11,14,-9
1523946840413677,29,19,2,4,-1,7,2,16
1523946840413677,-42,-4,11,-4,6,1,1,-23
1523946840420696,23,5,16,-10,-5,-2,0,25
1523946840420696,-4,0,-6,-1,-19,-2,-7,-10
1523946840436737,-3,-3,-5,-5,19,0,0,5
1523946840436737,17,3,-28,-1,2,-17,-10,-8
1523946840443759,-27,-20,-26,-4,-15,-15,-5,-18
1523946840443759,18,4,-5,-11,-1,-7,-2,14
1523946840459803,-2,0,-7,-4,13,15,3,4
1523946840459803,-13,7,-6,-18,-46,-10,-5,-36
1523946840460802,38,-3,-3,26,41,1,1,52
1523946840460802,-53,-2,-9,-14,-27,-18,-18,-22
1523946840473837,-4,-14,-25,-6,-13,-11,-4,-18
1523946840473837,-22,-4,-13,-16,2,10,2,-11
1523946840481858,0,-9,7,8,-12,1,9,5
1523946840481858,41,-2,9,18,16,3,6,7
1523946840496898,-72,26,1,4,-11,5,-12,-26
1523946840496898,46,-10,-10,-5,-1,1,3,-5
1523946840502913,22,-2,22,1,22,7,-5,5
1523946840502913,-4,9,4,5,-6,-4,-4,14
1523946840519959,-9,-5,-8,-15,-21,-8,-3,-5
1523946840519959,-3,1,3,0,17,-3,3,5
1523946840520963,-10,5,-8,-14,-31,6,2,-9
1523946840520963,22,12,1,-5,55,8,2,3
1523946840532993,15,-21,-1,0,-78,-6,-2,6
1523946840532993,-22,-2,-15,1,11,-12,-12,-5
1523946840542019,-9,1,-2,0,17,4,3,-4
1523946840542019,-21,-28,-6,-7,-2,5,-2,-2
1523946840556058,26,16,1,4,-3,0,4,12
1523946840556058,-8,-9,-1,16,26,-3,-4,0
1523946840563088,-31,-4,-8,-5,-35,-9,-7,-22
1523946840563088,19,-10,10,-5,-4,-2,3,10
1523946840580120,-4,36,3,-11,10,-4,-8,-29
1523946840580120,29,7,-22,7,1,6,5,17
1523946840581121,32,12,23,14,13,3,-2,2
1523946840581121,-53,10,-20,-13,-19,1,3,-5
1523946840593154,35,-3,8,1,32,0,0,14
1523946840593154,-10,-2,9,11,-25,-3,-1,9
1523946840602177,-32,5,1,-10,8,6,1,-13
1523946840602177,28,6,-7,13,16,3,2,2
1523946840616215,-9,-14,2,-3,-29,-1,4,6
1523946840616215,-13,2,6,-4,12,-7,-4,-5
1523946840623238,-3,-15,-17,-21,-14,2,2,-1
1523946840623238,12,9,12,3,-28,-4,-3,3
1523946840639277,-10,-29,-5,13,40,-2,-4,-2
1523946840639277,-5,-21,6,-19,1,-2,5,-1
1523946840641280,19,18,-17,-16,-34,-2,-1,10
1523946840641280,-28,5,5,18,5,2,1,-16
1523946840653317,10,0,5,11,1,-1,0,5
1523946840653317,-2,-1,12,6,-21,-1,-4,-1
1523946840662342,5,-6,2,0,29,-4,-6,-5
1523946840662342,12,-8,-10,-14,-33,-5,-2,8
1523946840676373,-15,-15,-12,-2,20,2,0,2
1523946840676373,7,13,0,-3,-8,-5,1,-1
1523946840683396,-16,-14,6,-4,23,30,1,-25
1523946840683396,24,3,-1,6,5,-8,9,38
1523946840699436,-42,0,20,-3,13,-4,-6,-26
1523946840699436,4,-13,-27,3,-27,-5,-3,-2
1523946840701440,-10,-6,30,17,25,-5,-1,1
1523946840701440,6,17,6,-6,-25,13,-1,20
1523946840713473,-48,20,-34,-1,-2,-9,-2,-36
1523946840713473,15,-61,-26,-16,-3,2,6,13
1523946840722504,-5,7,-15,8,-24,-11,-1,2
1523946840722504,-5,-8,1,8,27,-4,-13,-25
1523946840736539,17,-5,-7,-4,1,-11,-7,15
1523946840736539,-12,15,12,-10,-18,1,3,-5
1523946840743558,-10,-9,-15,0,-18,-17,0,-1
1523946840743558,12,-15,-14,-17,53,42,4,-1
1523946840758593,7,-10,-13,-1,-9,11,2,6
1523946840758593,-5,16,3,9,16,-3,-2,-8
1523946840765613,5,-2,-8,-25,-69,-34,-6,6
1523946840765613,2,14,0,23,11,-19,-3,-9
1523946840773635,3,-14,22,3,13,6,-5,-3
1523946840773635,-13,-6,-10,-8,-11,-2,-6,-17
1523946840782657,20,6,-4,12,17,1,7,12
1523946840782657,-7,8,-14,9,-8,0,1,-12
1523946840796696,12,0,-1,13,11,3,7,15
1523946840796696,5,15,9,-3,-13,2,-5,-6
1523946840803713,-9,-20,-9,1,-1,11,9,23
1523946840803713,2,-4,-13,-16,-15,-3,-6,-21
1523946840818754,30,-23,-4,-29,-38,-3,2,13
1523946840818754,14,35,15,0,51,-4,5,24
1523946840825772,-18,0,-3,-7,6,3,-13,-19
1523946840825772,2,-2,9,7,-17,0,6,7
1523946840833794,-4,-8,6,-13,41,-12,-7,5
1523946840833794,2,4,-13,17,-69,-2,-7,-9
1523946840842818,7,5,0,15,46,7,3,1
1523946840842818,-3,-8,-1,-23,-12,-13,-7,3
1523946840856856,-14,6,4,-2,-14,0,-1,-8
1523946840856856,-46,-3,-22,3,28,8,2,-11
1523946840863875,-1,22,33,-7,-40,-9,-8,-3
1523946840863875,1,-16,2,-5,2,-11,-3,0
1523946840878918,-3,6,-18,-5,7,5,-2,7
1523946840878918,-2,-22,-24,-20,10,2,1,-3
1523946840885931,-5,6,-15,-2,-17,-2,2,0
1523946840885931,-3,6,0,-12,-5,-12,-14,-27
1523946840892950,-8,0,-7,-2,-14,11,16,19
1523946840892950,11,2,1,1,11,-2,-13,-14
1523946840901973,-13,-22,-11,-6,29,2,-2,-13
1523946840901973,13,4,-1,-4,-42,-9,3,12
1523946840916011,7,12,16,5,-9,-4,-9,5
1523946840916011,-1,-14,-23,-6,5,14,3,-27
1523946840923068,-40,14,-3,-4,1,2,3,20
1523946840923068,-16,-4,-2,-16,16,-5,-9,-30
1523946840939074,17,9,-7,12,-49,-14,2,8
1523946840939074,0,-3,16,-2,21,-6,-6,3
1523946840946110,10,-10,11,9,11,7,-6,-7
1523946840946110,-2,8,4,11,17,10,13,11
1523946840962138,-6,-12,-26,-3,11,6,-1,-2
1523946840962138,14,2,12,9,10,6,7,13
1523946840964140,-5,-11,-21,-4,3,-9,-7,-13
1523946840964140,5,-6,8,9,9,-2,-4,11
1523946840976171,3,1,10,16,3,5,2,-11
1523946840976171,1,1,21,-4,-23,-4,2,15
1523946840983192,11,29,7,0,-22,-8,-3,-8
1523946840983192,-28,1,6,8,1,9,12,13
1523946840999232,-11,-15,-16,4,26,-15,-13,-19
1523946840999232,13,4,4,0,9,16,13,5
1523946841006251,11,-18,-16,-6,4,2,-6,-1
1523946841006251,36,11,16,2,-10,-3,-6,15
1523946841022297,-85,-34,7,-7,-17,-4,5,-50
1523946841022297,11,10,10,4,-1,-8,-4,25
1523946841024301,0,-2,-5,4,13,10,8,-9
1523946841024301,-22,-12,-22,-7,-12,-1,-2,-21
1523946841036331,25,9,5,-3,-3,1,1,19
1523946841036331,-10,-12,-16,-3,-28,-9,-15,-14
1523946841051372,-4,-16,3,-1,22,7,6,-1
1523946841051372,8,6,-7,-3,4,-4,0,2
1523946841059396,15,13,15,-1,-39,-5,-1,6
1523946841059396,-9,0,-4,1,4,-3,3,-1
1523946841065409,10,1,-1,5,-15,-4,-5,2
1523946841065409,-11,-24,-2,-5,2,-1,-3,-4
1523946841082454,43,14,-11,-2,16,6,12,38
1523946841082454,-54,-3,5,-8,-9,-5,-7,-28
1523946841083456,7,-22,0,-10,-16,-3,1,8
1523946841083456,10,-4,3,8,24,-3,-2,-5
1523946841096491,-4,-1,-2,-2,-15,4,-7,-4
1523946841096491,17,-19,0,-11,-28,-10,-4,0
1523946841103509,-1,26,-9,-13,14,4,6,-1
1523946841103509,-10,-5,9,-14,-22,-6,-7,-7
1523946841118551,16,7,-12,-7,-9,-39,-9,-1
1523946841118551,-7,-7,2,42,2,34,-4,-3
1523946841125568,-15,-15,-16,11,7,1,-3,-13
1523946841125568,11,9,1,8,14,2,-2,-6
1523946841142616,-13,-1,-14,-10,-6,-14,-10,2
1523946841142616,17,7,4,-27,-6,-19,11,11
1523946841143619,-5,-3,0,3,-9,-2,-4,-6
1523946841143619,-4,6,-2,7,-16,-1,-8,4
1523946841156654,-7,-9,3,8,10,4,-6,-17
1523946841156654,7,1,2,2,7,3,21,17
1523946841163669,12,-4,-2,-6,-19,-10,-10,4
1523946841163669,-5,1,-12,-19,-6,2,-4,-13
1523946841178713,-3,-1,8,3,-2,10,-5,0
1523946841178713,2,-4,-33,-9,1,1,-7,5
1523946841185727,-7,0,4,0,-44,-40,-11,-12
1523946841185727,1,0,5,29,63,14,15,12
1523946841201772,1,-8,-18,-17,56,75,4,2
1523946841201772,-1,2,-19,21,-25,-29,-15,-8
1523946841203776,-5,-8,-14,111,-24,-6,-1,-5
1523946841203776,8,-11,-33,94,-128,-46,-9,-3
1523946841216813,-20,-1,-1,-27,-52,-10,4,-7
1523946841216813,2,6,15,-43,40,13,-1,-14
1523946841223831,-14,-2,17,-2,51,0,3,14
1523946841223831,14,7,36,-110,78,7,10,32
1523946841238870,8,9,10,-70,71,11,10,-21
1523946841238870,10,9,7,-128,46,4,-3,19
1523946841245893,-5,-2,-2,-58,26,1,0,1
1523946841245893,29,13,-7,41,-2,13,6,2
1523946841261935,-26,-14,-21,63,-16,-19,-10,-13
1523946841261935,-11,-4,-23,66,-93,-18,-9,-11
1523946841263939,13,0,5,36,-18,11,0,8
1523946841263939,-26,-12,-19,11,-42,0,-16,-10
1523946841276971,10,5,9,10,-12,-38,0,-2
1523946841276971,5,-8,-16,35,24,10,-10,-9
1523946841282990,-9,-10,-7,-5,-10,-3,-11,-13
1523946841282990,-23,2,6,-31,-3,17,15,-56
1523946841299030,6,-4,-8,13,-26,-16,-2,62
1523946841299030,-2,-8,-4,30,-19,-5,-3,-7
1523946841306050,14,0,-4,-21,54,13,0,-14
1523946841306050,-7,-16,-15,-20,-34,-19,-15,1
1523946841322092,-16,-1,-10,13,13,2,-4,-7
1523946841322092,2,7,4,6,-12,-19,3,2
1523946841324097,-1,-6,-6,-21,-20,-16,2,13
1523946841324097,12,1,4,-9,59,62,8,18
1523946841336131,4,-3,1,6,-3,-9,-2,-7
1523946841336131,-9,-12,-18,3,4,-8,-4,-1
1523946841343158,5,2,11,-10,-33,-17,-8,-8
1523946841343158,-26,4,14,7,-4,-10,18,12
1523946841359193,23,7,5,2,6,10,-4,-7
1523946841359193,-26,-3,10,10,-14,-11,-5,-30
1523946841366207,6,-4,-18,-6,-19,-4,0,12
1523946841366207,28,-2,-4,1,33,7,-6,-2
1523946841382250,-22,-3,5,-1,9,6,-2,-5
1523946841382250,20,4,7,3,-40,-16,-2,6
1523946841384255,-8,3,1,-6,-10,1,5,-2
1523946841384255,-1,-2,-1,-5,6,9,0,13
1523946841396289,6,-15,-22,2,6,-8,-9,-25
1523946841396289,3,9,15,2,24,4,3,7
1523946841403307,-4,3,2,-8,-17,-8,11,6
1523946841403307,-3,1,0,3,6,16,-3,2
1523946841419349,21,12,32,12,22,-11,2,11
1523946841419349,-17,0,-12,-11,-8,24,5,-1
1523946841426375,2,-2,7,0,-8,-14,-12,0
1523946841426375,10,-3,-1,1,-7,-25,10,22
1523946841442417,1,22,6,4,-30,10,12,24
1523946841442417,-8,-2,13,4,13,4,0,-19
1523946841443415,14,-2,0,-4,20,1,-7,-3
1523946841443415,-30,-1,3,3,-10,-9,-6,-16
1523946841455447,13,3,21,-5,17,6,-2,5
1523946841455447,1,-12,-20,7,-27,-6,4,11
1523946841464470,11,5,5,0,15,22,8,13
1523946841464470,-6,-8,-12,-5,6,-12,-10,-17
1523946841478507,-30,-16,-13,-5,-23,-9,-9,-21
1523946841478507,37,13,5,-1,13,-1,-5,23
1523946841485529,-81,-23,-23,4,8,9,6,-20
1523946841485529,42,23,4,-6,-21,-15,1,24
1523946841502570,-28,-9,-6,-14,-13,-15,-7,-20
1523946841502570,13,1,-15,-6,-19,-41,-22,6
1523946841503573,2,-6,3,-6,-77,-52,-30,-16
1523946841503573,27,9,25,6,14,42,36,26
1523946841515605,3,-6,-12,4,15,30,6,10
1523946841515605,-31,-36,0,-3,67,56,18,-33
1523946841524630,-5,7,3,-11,80,28,14,17
1523946841524630,-15,0,-8,-2,20,-16,-29,-34
1523946841538666,60,15,17,-2,34,-1,20,29
1523946841538666,12,6,22,19,25,-2,7,36
1523946841545689,-18,-2,-21,-3,0,-3,-9,-22
1523946841545689,-10,-17,-15,-13,-57,-11,1,-14
1523946841562732,-4,-7,-4,-2,-36,-9,-16,-5
1523946841562732,0,1,-10,-4,-8,-17,-14,-3
1523946841563733,9,-5,-27,3,-16,7,10,11
1523946841563733,16,11,1,-6,-26,-9,6,44
1523946841575765,-34,-9,-12,-4,-47,-10,-15,-46
1523946841575765,6,2,7,7,18,10,8,5
1523946841584789,9,-9,-9,-1,12,-13,-19,-17
1523946841584789,-18,-4,-5,4,1,-6,-20,-4
1523946841598829,-4,-4,-37,-5,-20,-8,-6,-14
1523946841598829,6,-4,-26,-6,-69,13,28,-1
1523946841605847,37,18,35,13,89,35,25,32
1523946841605847,-60,-26,-28,-2,8,-35,-40,-88
1523946841621889,96,16,26,10,49,45,33,78
1523946841621889,-59,-29,-30,-21,-24,-26,-30,-71
1523946841623893,-27,21,10,-16,-34,-8,-4,-17
1523946841623893,-5,-15,-18,2,-29,-8,-15,13
1523946841635927,-14,-27,5,7,13,-19,-16,-49
1523946841635927,27,-15,1,5,48,16,41,63
1523946841644950,1,23,-11,-10,-72,1,-13,-8
1523946841644950,-5,-1,19,4,1,-11,6,8
1523946841658992,-32,-11,-26,-12,-1,-4,-13,-21
1523946841658992,8,17,23,-4,-10,-1,3,18
1523946841666008,-27,-36,-30,6,34,18,-2,-42
1523946841666008,43,9,17,6,13,10,22,47
1523946841682049,-21,31,18,-2,-14,-25,-14,-66
1523946841682049,18,4,-24,-7,-23,-26,-13,41
1523946841684053,14,0,14,6,18,6,-4,-15
1523946841684053,16,-16,-32,14,42,13,3,8
1523946841696084,-8,-15,-37,-21,-23,0,-6,-8
1523946841696084,-18,-3,3,2,-35,3,-2,-10
1523946841711128,23,10,13,0,16,-16,-1,11
1523946841711128,-16,-6,0,2,32,1,-4,-13
1523946841719147,24,5,14,7,-33,-4,5,32
1523946841719147,3,17,19,3,31,6,-8,-9
1523946841727168,-7,-7,-1,-5,-59,-22,-1,8
1523946841727168,-2,-4,-14,8,73,37,9,-24
1523946841741206,-25,-10,26,-4,-5,-19,-12,71
1523946841741206,32,36,9,8,9,-18,-27,-72
1523946841748224,-2,-20,-30,-7,-28,24,39,15
1523946841748224,0,6,17,-27,-37,-42,-11,-18
1523946841756244,-16,-7,-8,0,-12,8,2,-15
1523946841756244,-16,-6,11,0,31,-3,-32,-46
1523946841765269,16,-20,-6,0,34,-15,3,29
1523946841765269,14,18,1,-6,-30,13,20,29
1523946841779307,14,7,-13,5,10,4,6,3
1523946841779307,-22,-6,-1,-9,-22,-4,3,7
1523946841786326,9,0,10,-4,17,3,-7,-14
1523946841786326,-15,-3,-3,-2,-10,5,3,2
1523946841801364,-2,-9,-10,6,1,12,9,1
1523946841801364,24,-2,-1,5,0,-15,-24,-14
1523946841808383,22,33,22,11,-8,30,65,105
1523946841808383,-97,-23,21,0,-37,-30,-34,-71
1523946841815403,38,24,-12,-4,11,-9,12,-3
1523946841815403,-11,-19,-2,8,3,17,7,92
1523946841824428,7,7,5,2,-9,-2,-32,-35
1523946841824428,0,4,-18,2,-29,-22,12,56
1523946841839467,9,6,20,16,55,8,-2,-20
1523946841839467,-20,-9,2,-12,-55,1,1,-10
1523946841845486,-19,-19,-14,1,-27,-15,-17,-24
1523946841845486,19,12,19,-3,66,28,11,10
1523946841861530,-20,-5,9,21,-28,-1,-4,-34
1523946841861530,31,-6,-22,-10,7,-11,-17,-59
1523946841868544,-32,2,-7,-10,14,10,21,-21
1523946841868544,38,10,1,-10,-64,0,3,-34
1523946841884586,-29,-7,23,8,30,0,-6,26
1523946841884586,-20,-8,-24,-18,31,-20,-6,-31
1523946841886593,23,5,6,2,-36,12,4,-20
1523946841886593,-11,-15,-18,-1,8,-13,-6,44
1523946841898624,-3,-18,-28,-23,-37,0,14,-39
1523946841898624,29,12,-4,4,-7,15,14,71
1523946841905643,28,-6,2,-1,-2,-22,-31,54
1523946841905643,-38,3,7,10,-17,-2,-3,-58
1523946841921685,8,-1,-4,-18,-41,-13,-4,-17
1523946841921685,-8,-2,17,17,73,19,-3,-3
1523946841928708,-4,-15,-33,-7,-26,-6,-19,-9
1523946841928708,40,-9,2,-5,34,1,-19,36
1523946841944748,-15,7,-32,-15,-14,6,12,-46
1523946841944748,32,7,4,-7,-40,-1,26,104
1523946841945751,4,-24,-16,8,1,-13,-22,-46
1523946841945751,5,0,-20,-15,5,-13,-34,-44
1523946841958784,-1,-3,3,12,25,5,4,28
1523946841958784,-23,7,5,-8,-8,6,10,-31
1523946841965803,-26,19,-8,-7,-17,7,0,-41
1523946841965803,41,20,26,7,30,8,13,30
1523946841981845,-4,-16,-3,6,19,-21,-24,-11
1523946841981845,-7,3,-5,-3,-1,17,3,-11
1523946841987860,2,5,19,-6,2,-17,-3,28
1523946841987860,-3,1,7,4,-34,-1,9,-26
1523946842004908,-1,5,18,9,-17,13,3,34
1523946842004908,-21,-10,-10,16,-11,-14,-17,-26
1523946842005911,36,-5,-13,-22,12,-7,-8,-33
1523946842005911,-64,2,-5,6,53,30,44,-7
1523946842018944,22,3,24,8,-62,7,-11,-7
1523946842018944,-14,-11,-15,-23,37,-18,-27,-61
1523946842025975,9,-3,9,-2,-7,9,19,-7
1523946842025975,51,19,-31,-3,13,-27,-6,73
1523946842042009,-15,-15,-13,-13,-22,7,8,68
1523946842042009,0,8,21,11,-48,14,14,-36
1523946842048020,-12,5,8,17,45,-7,-9,-11
1523946842048020,7,-9,-15,-32,-8,1,-8,7
1523946842064064,30,8,24,27,37,18,12,-4
1523946842064064,-53,-9,-52,-16,-48,-19,-8,-50
1523946842065065,79,9,16,-4,-5,-16,-2,39
1523946842065065,-75,-50,-37,-12,-18,-13,-30,-91
1523946842080106,34,6,-5,4,48,-4,-6,6
1523946842080106,10,-3,20,2,-34,17,19,30
1523946842086121,-8,1,10,-10,31,3,-1,-3
1523946842086121,-5,1,4,2,-49,-8,7,-19
1523946842101163,-7,1,7,1,48,7,-13,26
1523946842101163,4,-4,16,15,60,11,17,3
1523946842108186,-56,-9,-7,16,62,-6,-22,-16
1523946842108186,59,25,50,20,-24,41,42,-10
1523946842124224,-24,-10,1,15,48,-6,19,84
1523946842124224,50,31,-2,0,13,-16,-21,33
1523946842125227,-73,-17,-1,-3,3,8,-3,-69
1523946842125227,19,14,7,1,22,-2,-9,34
1523946842140268,22,-23,16,3,-25,-24,-21,-16
1523946842140268,9,-6,-29,-6,-16,22,64,-24
1523946842146281,-42,8,-30,-8,-5,-8,-20,-54
1523946842146281,34,16,17,12,60,5,17,102
1523946842161323,-17,1,-17,-25,-110,-41,-41,-69
1523946842161323,10,-27,-9,14,55,8,-9,3
1523946842168341,41,9,9,2,-30,33,35,49
1523946842168341,-12,-5,-10,-6,-12,-17,-17,-37
1523946842184383,-8,-18,-41,-31,-40,-22,-12,-49
1523946842184383,-23,4,27,22,24,-19,-11,-17
1523946842184383,-1,-11,-4,8,-9,3,1,17
1523946842184383,-13,-11,-13,-16,77,10,-12,-19
1523946842199423,6,11,13,7,7,79,-2,33
1523946842199423,4,0,-1,4,54,-4,23,30
1523946842205438,49,-8,-15,-22,-26,-22,-35,5
1523946842205438,31,29,31,-3,-48,-25,11,-57
1523946842221484,-10,-10,-10,-6,-56,-28,-14,65
1523946842221484,27,24,25,8,-3,20,26,-35
1523946842228506,0,-12,-6,-6,-13,16,17,53
1523946842228506,-18,-15,10,10,37,0,-2,-14
1523946842244546,17,2,-3,-16,-15,-20,-28,-54
1523946842244546,-33,-16,-14,-19,26,-9,-14,3
1523946842244546,8,11,13,13,62,-6,14,8
1523946842244546,-7,-11,-14,6,-61,15,-9,-1
1523946842259585,-13,9,9,13,33,-25,12,-13
1523946842259585,16,1,-1,-15,-21,26,-8,40
1523946842265599,-23,-3,11,1,-22,37,9,-12
1523946842265599,6,-11,-20,-5,-33,-28,-16,12
1523946842280641,-4,10,3,4,52,-1,17,-2
1523946842280641,-7,0,8,0,-72,-16,-9,-9
1523946842288662,1,8,27,8,71,-16,-11,10
1523946842288662,-18,-16,-18,8,-19,-7,-26,-62
1523946842303701,17,2,-8,-2,39,3,30,27
1523946842303701,-8,-9,-20,-27,-12,-2,-38,29
1523946842304704,22,-8,-16,-7,-48,-11,-9,23
1523946842304704,-70,-11,-8,0,68,15,3,-14
1523946842319743,-9,-1,-4,-12,-72,-17,-12,-37
1523946842319743,13,-1,-16,-7,-38,-9,-2,7
1523946842325763,-7,-4,-2,-8,-102,-111,-6,18
1523946842325763,10,-15,-28,-12,25,60,10,16
1523946842342806,-1,4,-11,3,82,3,12,-12
1523946842342806,-9,-4,-4,-12,-40,-41,-4,0
1523946842348821,-7,-2,1,1,-23,14,-3,-24
1523946842348821,16,2,8,5,-56,-28,-2,9
1523946842363860,-7,4,-1,1,4,24,13,-1
1523946842363860,10,7,20,7,-15,-22,-24,-6
1523946842364863,-11,0,2,-14,32,23,6,-16
1523946842364863,10,-5,-7,-7,-44,-10,4,14
1523946842379903,-6,-8,-26,-5,39,21,-2,3
1523946842379903,-10,-5,-7,-3,3,-17,-14,-16
1523946842385918,6,9,9,8,40,4,5,1
1523946842385918,5,1,13,-3,-68,6,0,12
1523946842401963,3,-4,-9,2,-1,-21,-6,-11
1523946842401963,11,-21,-30,8,12,-2,-1,-4
1523946842408986,-48,-1,-8,-3,-23,4,-1,-18
1523946842408986,25,8,13,-7,-13,-18,-1,15
1523946842424021,-1,2,6,8,-3,0,2,-4
1523946842424021,16,2,9,11,13,-3,-4,-3
1523946842425024,-8,-17,-14,-6,-35,10,-5,-8
1523946842425024,0,-9,-26,-1,1,-21,-6,-1
1523946842440063,-11,8,9,-6,-29,4,4,-12
1523946842440063,21,1,-12,5,34,11,2,25
1523946842446082,-46,-6,-1,-5,-47,-34,-15,-25
1523946842446082,0,3,4,12,51,2,-1,1
1523946842462122,17,-8,-10,-6,11,10,11,18
1523946842462122,-19,-5,16,-13,-1,-2,5,-14
1523946842468137,-6,4,4,21,1,-9,-12,-30
1523946842468137,13,-8,-13,-17,-14,-4,5,12
1523946842484182,-2,1,5,-9,-44,-13,-6,5
1523946842484182,-13,9,11,15,16,4,3,3
1523946842485183,29,1,8,-12,36,17,12,17
1523946842485183,-25,-1,10,14,33,10,-8,-27
1523946842506238,5,4,3,6,10,-16,-11,24
1523946842506238,40,-15,-3,5,-8,-9,-9,42
1523946842507241,-32,-25,4,-7,13,6,6,-31
1523946842507241,-80,-7,-12,-14,2,-1,-13,-65
1523946842522282,8,-7,-12,-6,-18,11,18,-3
1523946842522282,-3,-4,1,21,-4,-16,-18,17
1523946842528303,49,11,-4,-23,-18,5,8,39
1523946842528303,21,-3,16,-1,1,0,-3,23
1523946842544344,-19,15,35,-1,3,3,1,-35
1523946842544344,-29,-9,4,4,-9,-4,-1,-37
1523946842545347,9,1,11,24,45,42,7,14
1523946842545347,11,4,-15,-8,-32,-29,1,9
1523946842566399,2,8,23,1,-55,10,4,58
1523946842566399,-3,-2,-18,-16,38,-27,-12,2
1523946842567402,14,2,0,4,-14,-6,-7,-76
1523946842567402,21,5,-10,-8,41,8,-5,29
1523946842582441,-12,-13,-21,-4,-34,-14,-12,-43
1523946842582441,0,11,11,-9,-2,3,1,2
1523946842588459,21,8,-12,2,3,-1,17,39
1523946842588459,9,-6,7,5,-38,-16,-3,15
1523946842604507,8,4,6,4,-12,-4,4,-17
1523946842604507,-18,0,-12,7,32,17,12,1
1523946842605507,15,5,7,8,-26,-8,-20,6
1523946842605507,31,0,-13,-25,42,17,17,33
1523946842626568,6,21,36,22,20,9,5,10
1523946842626568,-26,10,-20,-8,-5,8,27,-30
1523946842627565,-51,-19,-10,2,-5,-10,-14,-15
1523946842627565,20,-14,-23,2,-50,2,-8,-22
1523946842642603,-21,-16,-42,-14,7,-23,-15,-13
1523946842642603,11,-22,2,-23,-7,4,0,-7
1523946842648618,10,11,1,7,-15,-9,4,14
1523946842648618,-30,-4,-9,-6,0,-18,-14,-27
1523946842663659,17,-10,-18,-19,-2,9,0,-1
1523946842663659,-5,-1,-14,-9,45,12,-3,-11
1523946842670678,5,-2,-12,-6,-16,-14,-10,22
1523946842670678,14,12,34,20,-21,-17,15,11
1523946842686719,-24,1,6,4,14,-19,-1,61
1523946842686719,3,14,19,6,-12,7,-3,-79
1523946842687721,27,10,3,-1,4,18,25,38
1523946842687721,-31,13,3,4,-9,-13,-11,-69
1523946842702762,5,-18,-37,-6,19,5,5,31
1523946842702762,4,12,15,2,-35,12,-5,22
1523946842708783,5,-19,-34,6,21,-8,-8,-8
1523946842708783,19,0,-8,0,4,15,8,-9
1523946842723818,1,-7,-8,4,40,2,-2,-22
1523946842723818,-27,-6,-11,-16,-100,-14,-4,-4
1523946842730837,4,6,5,-6,54,15,-1,-9
1523946842730837,6,6,13,15,1,-10,2,39
1523946842746879,-17,-7,-12,-15,-32,-38,-16,-42
1523946842746879,30,13,12,4,76,-41,6,44
1523946842746879,-15,-20,-43,-14,46,72,11,-15
1523946842746879,-5,-13,-48,-23,-48,-46,-11,-2
1523946842761920,2,3,10,-5,-13,-28,-2,-11
1523946842761920,-2,4,7,-1,-57,8,2,-5
1523946842767935,-3,5,5,0,-9,-23,-5,5
1523946842767935,1,-5,4,10,44,26,7,10
1523946842782974,3,-9,-12,-3,-7,8,-9,-14
1523946842782974,1,8,15,-4,-37,6,3,11
1523946842790996,14,-8,-6,19,53,8,-3,5
1523946842790996,-12,0,-12,-10,-22,12,0,2
1523946842806036,8,7,15,19,25,-3,6,7
1523946842806036,-11,-14,-10,-15,-38,-9,-10,-12
1523946842807040,4,2,-6,6,-20,31,8,-1
1523946842807040,14,12,31,-13,-4,24,0,5
1523946842822080,-6,2,6,4,1,17,19,15
1523946842822080,2,-1,-14,4,24,-6,-3,-1
1523946842828101,1,4,15,-13,-98,-59,-8,-1
1523946842828101,-18,-3,-2,-2,19,-2,7,3
1523946842843160,-3,-14,-26,-9,22,26,-16,-1
1523946842843160,-13,-4,4,9,-6,3,-1,-13
1523946842851157,50,10,11,0,19,-27,-17,14
1523946842851157,-72,4,35,16,-6,6,46,12
1523946842866198,31,22,30,15,35,17,12,12
1523946842866198,-19,-14,-30,-13,-9,-12,-3,-22
1523946842867199,10,31,19,-7,-18,-12,-9,-1
1523946842867199,21,-8,-15,-2,-57,-15,-15,15
1523946842882238,-11,-17,-16,-5,3,-38,-15,-25
1523946842882238,4,4,5,0,-41,49,13,20
1523946842888254,-29,-12,1,9,105,24,1,-16
1523946842888254,16,-12,-19,-7,-12,-16,-18,-3
1523946842903295,-15,4,7,-2,1,-19,-9,-15
1523946842903295,12,-5,3,11,-49,0,4,8
1523946842911319,-15,2,23,-2,22,5,13,10
1523946842911319,7,0,9,10,13,-4,-17,-30
1523946842926357,16,-4,-4,-3,-3,22,8,10
1523946842926357,1,-2,-14,4,42,-9,-6,-2
1523946842927359,-8,-1,10,0,-48,-6,4,-17
1523946842927359,23,4,3,-1,18,9,3,29
1523946842942401,-4,11,7,-1,-46,-23,-11,-23
1523946842942401,13,-1,3,12,57,29,-6,4
1523946842948417,-24,-10,-11,-6,31,21,2,-10
1523946842948417,-4,-13,-10,5,21,-6,-16,-22
1523946842963455,19,1,-4,-2,-22,6,21,19
1523946842963455,-15,3,8,-4,13,-20,-11,-10
1523946842970479,33,-8,2,-3,-51,-21,-16,-34
1523946842970479,-27,16,23,9,24,15,34,18
1523946842986518,-7,4,-18,-4,8,12,-23,25
1523946842986518,0,-1,-7,-1,19,-4,19,11
1523946842987518,21,18,15,-8,-57,-8,0,18
1523946842987518,21,-19,-28,5,27,6,4,5
1523946843002560,-20,-2,5,5,-7,-2,1,-8
1523946843002560,0,-14,-14,-19,-15,-12,-15,-20
1523946843008580,-20,5,10,1,15,-21,-6,36
1523946843008580,16,-1,-6,14,-35,4,2,12
1523946843023614,-20,-6,5,0,43,24,-7,-24
1523946843023614,11,10,-8,-3,-26,27,13,24
1523946843030633,-5,-10,-14,-13,29,5,3,-4
1523946843030633,-26,-13,-20,-19,-65,-37,-44,-52
1523946843046676,12,3,3,17,55,19,36,-13
1523946843046676,15,11,35,-11,-21,-10,-11,-2
1523946843047680,1,-4,-26,-4,-13,-12,-9,50
1523946843047680,-10,-14,10,4,-25,1,18,2
1523946843062718,-65,-20,-61,-23,29,-3,-32,-70
1523946843062718,21,14,11,12,13,-10,3,3
1523946843068735,-12,-9,4,6,7,-3,-10,-24
1523946843068735,-9,5,-2,-8,8,-12,-15,3
1523946843083774,21,-14,-3,-17,-17,-14,-20,29
1523946843083774,-17,-13,-42,-9,-11,-4,21,-4
1523946843090795,-14,-5,-7,-3,4,-14,-5,-14
1523946843090795,24,4,-3,0,-18,-1,-10,-12
1523946843106836,-37,1,1,-5,-34,-5,3,-3
1523946843106836,-11,-7,-19,8,10,-15,-35,-20
1523946843106836,9,3,9,8,64,15,23,10
1523946843106836,71,3,9,-6,30,5,0,33
1523946843121876,-66,11,-7,-11,-46,-19,-32,-18
1523946843121876,8,9,4,12,0,12,55,102
1523946843127899,49,-34,-12,1,-40,-13,-16,-59
1523946843127899,-73,18,-33,-15,-3,1,-2,-14
1523946843142937,30,-21,-12,-6,14,-4,-26,-47
1523946843142937,71,22,4,-3,58,9,9,10
1523946843150957,-79,-54,-47,-7,-128,-28,-28,-9
1523946843150957,40,63,42,9,51,7,0,20
1523946843165994,6,-25,-29,1,-20,-12,-35,-67
1523946843165994,3,-9,-6,8,74,10,5,-79
1523946843166995,41,8,-2,-54,-54,16,14,70
1523946843166995,23,3,22,27,56,-5,-11,27
1523946843182036,37,19,14,19,37,2,43,102
1523946843182036,-104,-48,2,-2,-118,-7,-31,17
1523946843188054,-8,-15,-35,-18,24,-8,-8,-34
1523946843188054,12,-3,27,2,27,15,24,55
1523946843203106,54,24,22,4,-19,9,3,17
1523946843203106,19,0,-1,4,-2,-14,-13,-18
1523946843211120,-82,-6,-3,-13,-66,4,22,-21
1523946843211120,-13,-22,-16,9,-21,-6,-7,-12
1523946843226156,34,-24,-4,-10,52,-4,1,12
1523946843226156,2,5,6,-1,34,19,2,-43
1523946843228164,-6,7,-3,21,-40,-25,-22,-17
1523946843228164,-4,-7,-2,-19,54,15,3,-25
1523946843242200,-6,-1,18,1,-14,2,3,16
1523946843242200,-9,10,14,12,49,12,-4,-14
1523946843248212,9,14,18,-21,27,1,11,33
1523946843248212,6,-23,-20,21,4,-33,-28,36
1523946843263253,-42,16,41,30,44,43,5,-92
1523946843263253,38,-14,-4,-49,-38,-20,0,93
1523946843271274,41,11,24,22,29,9,7,-6
1523946843271274,-22,-14,-14,-20,2,-2,1,-30
1523946843286316,-10,-14,-20,-11,-74,-17,5,6
1523946843286316,-12,1,-2,13,-6,-14,-18,-4
1523946843287315,49,15,24,7,31,18,12,10
1523946843287315,51,23,16,9,-78,7,20,4
1523946843302356,50,23,8,-1,49,4,21,46
1523946843302356,-17,-13,-5,-2,20,-10,-23,-48
1523946843308381,12,-26,-3,7,-16,3,7,18
1523946843308381,-24,4,-5,5,-21,-7,-3,-39
1523946843323412,-20,-6,24,-12,-75,-28,2,-14
1523946843323412,-18,-2,1,-1,49,53,-35,-52
1523946843330432,62,34,16,18,127,27,44,43
1523946843330432,-70,-3,-14,-16,-103,-12,-17,-71
1523946843346473,-4,-22,-38,-25,2,-18,-1,-3
1523946843346473,-28,-19,-24,-22,-23,-42,-22,-84
1523946843347475,1,5,-9,12,-3,-1,-24,45
1523946843347475,-29,-19,-12,-10,-27,17,12,-32
1523946843362516,-10,4,-15,1,-3,-10,-2,10
1523946843362516,8,30,54,-1,-40,-15,13,23
1523946843368533,-38,-18,-33,5,-14,-9,-21,-46
1523946843368533,35,-1,2,-5,-7,-21,4,28
1523946843383572,-7,-16,-27,8,22,40,-4,-6
1523946843383572,3,-8,-8,15,50,-10,9,10
1523946843390593,-28,2,2,-7,-63,-7,-16,-45
1523946843390593,4,-5,-2,-4,22,-2,16,88
1523946843406633,73,6,19,-6,-70,25,-3,-95
1523946843406633,-23,-6,-24,1,44,1,21,17
1523946843407634,43,8,23,-7,-34,-14,2,77
1523946843407634,-39,-12,14,17,109,3,-20,37
1523946843422677,45,30,34,28,6,13,42,76
1523946843422677,44,-43,-41,-1,-106,-18,-6,-8
1523946843428691,-65,-1,-17,-14,-27,-4,-15,-59
1523946843428691,6,-39,-27,-8,14,-26,-14,-51
1523946843443737,-15,8,21,5,57,10,-10,25
1523946843443737,45,31,42,-3,-24,39,15,37
1523946843450751,-33,-4,-18,21,80,-13,-2,-31
1523946843450751,19,-18,-23,-9,-18,-7,-6,-10
1523946843466794,10,0,-13,0,-71,-22,7,-27
1523946843466794,-48,-4,-24,0,21,-27,-28,-22
1523946843466794,84,3,7,5,-11,38,19,-27
1523946843466794,-82,15,-15,-10,-19,-1,-11,-5
1523946843481833,6,-13,-2,8,45,-7,17,21
1523946843481833,7,0,1,-2,-32,-2,-15,30
1523946843487850,-12,3,13,10,-1,-11,-6,-29
1523946843487850,42,24,10,-8,36,0,-5,3
1523946843502891,-35,-11,-3,3,-25,-33,-21,-12
1523946843502891,-17,-11,-20,-7,45,53,14,-12
1523946843510913,0,7,3,-9,-34,-50,5,48
1523946843510913,21,-1,-4,14,86,72,-1,-37
1523946843526955,-16,4,-7,-42,-88,-16,10,28
1523946843526955,15,12,4,26,29,-33,0,5
1523946843526955,-29,-13,3,2,-32,-24,-36,-59
1523946843526955,63,7,5,-3,-31,-3,24,70
1523946843541995,34,-16,-40,-13,-5,-6,-38,-44
1523946843541995,23,-4,2,-2,-25,5,4,19
1523946843548008,20,2,-5,8,88,21,24,36
1523946843548008,7,-7,8,7,-46,-27,-28,-25
1523946843563048,11,-1,6,-4,4,9,-2,32
1523946843563048,-19,-2,-5,-8,-19,-16,-1,-24
1523946843571070,-20,2,-7,12,-2,25,-9,43
1523946843571070,9,4,17,-31,38,12,21,28
1523946843586112,-25,-25,18,18,15,-24,-39,-60
1523946843586112,-7,16,-15,-17,-112,-7,17,36
1523946843593131,-17,-19,-5,23,58,31,60,-81
1523946843593131,80,37,34,8,12,6,-6,-15
1523946843602155,-29,-8,-36,-3,-28,-12,2,54
1523946843602155,11,-15,11,22,0,-18,-20,-25
1523946843608177,-7,-16,-48,-48,-23,0,-16,-34
1523946843608177,-27,-2,-16,4,-70,-5,3,-79
1523946843623207,11,-2,-1,3,27,-2,2,-10
1523946843623207,23,14,25,-2,63,10,-1,-3
1523946843631229,-10,-6,1,2,0,-10,-14,20
1523946843631229,-10,0,0,-10,-70,7,8,-3
1523946843646268,-15,8,13,9,0,-8,-7,-2
1523946843646268,8,-8,-12,10,125,27,11,27
1523946843653305,-6,6,12,-8,-87,-8,-3,-14
1523946843653305,-21,-15,-16,-2,6,-13,-19,2
1523946843662311,1,17,22,3,45,4,-4,-37
1523946843662311,-18,13,30,28,10,12,37,60
1523946843668329,85,24,23,11,-4,-5,-9,25
1523946843668329,-85,-21,-8,9,-6,1,8,-69
1523946843683371,57,3,14,-12,-4,4,14,98
1523946843683371,-3,-17,-38,-14,-18,-25,-17,-119
1523946843691391,2,2,-18,-9,-47,-8,-16,28
1523946843691391,10,5,15,0,41,25,20,33
1523946843705426,-26,-2,1,16,-22,16,10,-23
1523946843705426,-20,1,8,3,39,-21,-12,-26
1523946843713448,-9,1,2,-14,23,10,3,1
1523946843713448,0,-9,-7,8,41,-13,-8,-12
1523946843722471,-4,1,-13,-6,31,17,4,-15
1523946843722471,27,6,-2,-8,-84,-4,-1,34
1523946843728491,-19,0,-5,3,19,-14,-7,-9
1523946843728491,11,-5,-1,0,48,1,-15,9
1523946843743537,-23,-7,-18,-26,-72,-4,-5,3
1523946843743537,46,11,-8,1,41,18,22,15
1523946843750548,-38,-14,-10,-18,-46,-32,-43,-86
1523946843750548,22,7,4,-5,31,23,13,51
1523946843765587,-12,-31,-20,-14,-40,-8,-18,-23
1523946843765587,-8,22,-21,2,-11,6,11,3
1523946843773612,-28,-3,-4,-4,20,10,4,21
1523946843773612,19,5,-2,-7,-42,-19,-12,-15
1523946843788648,3,9,15,13,-12,0,21,12
1523946843788648,0,-6,-12,-12,-41,-11,-18,11
1523946843789650,11,14,31,9,124,34,23,11
1523946843789650,-2,-11,-30,-6,-43,-12,-6,2
1523946843803687,-2,8,7,16,3,-11,2,1
1523946843803687,-5,-6,8,-18,-19,0,-7,-5
1523946843810710,0,2,8,8,-29,-20,-8,-1
1523946843810710,-3,-9,3,8,-33,3,3,3
1523946843825750,8,3,-6,-5,79,27,5,2
1523946843825750,-1,-5,1,-14,-44,-19,-4,-5
1523946843833769,-1,-8,-7,6,25,10,0,7
1523946843833769,4,6,-1,-14,-13,-17,-1,5
1523946843848809,9,4,-9,-5,-15,-7,-3,1
1523946843848809,-21,-14,-14,0,0,-6,-4,-3
1523946843849811,3,5,6,5,1,7,11,14
1523946843849811,-4,-7,-12,2,-12,-3,-3,-5
1523946843864850,7,7,7,10,19,-3,2,5
1523946843864850,0,-4,10,10,23,1,-4,1
1523946843870867,5,1,-3,-11,-27,-3,2,7
1523946843870867,3,0,-1,5,-2,-1,-4,-7
1523946843893930,2,-11,-8,1,6,4,3,5
1523946843893930,-4,17,-15,-10,-11,0,-2,-6
1523946843894933,-13,-10,-4,-7,-17,-4,-3,-1
1523946843894933,14,8,13,15,3,-2,1,5
1523946843908969,-15,-7,-15,0,14,-2,-4,-4
1523946843908969,6,-17,-4,-9,-22,-5,-4,0
1523946843909971,9,1,0,-8,-3,-1,2,4
1523946843909971,-5,-6,-11,-1,1,-5,4,2
1523946843925012,-3,5,14,19,37,3,-4,-4
1523946843925012,-5,-9,-11,-12,-33,-8,-7,-5
1523946843931028,-5,5,13,5,6,-6,-3,-5
1523946843931028,1,-13,-14,-21,-8,13,-3,0
1523946843946068,-1,4,-3,-19,35,12,10,1
1523946843946068,-4,-9,-9,8,-34,-6,-6,-2
1523946843953087,5,4,1,4,15,-7,-1,-2
1523946843953087,-5,-2,-1,4,-7,-4,-8,-4
1523946843969129,7,5,2,-2,-7,-3,9,20
1523946843969129,-3,-9,-6,9,14,2,-5,-26
1523946843970130,-10,-2,-7,-2,-23,0,10,41
1523946843970130,24,-3,32,9,24,-1,-4,-9
1523946843985177,-6,14,2,-10,-36,-10,-9,-19
1523946843985177,5,-4,18,9,26,4,3,-3
1523946843991189,-22,-2,-11,3,-6,-1,-3,-10
1523946843991189,-6,-15,-12,-1,8,-2,-6,-1
1523946844006232,5,-9,-6,1,-9,-6,-6,2
1523946844006232,10,8,16,8,-5,-6,6,14
1523946844013245,6,1,2,15,4,14,-8,-12
1523946844013245,-9,7,7,0,51,13,11,6
1523946844029288,-3,-7,-12,-17,-63,-16,-5,-16
1523946844029288,-7,-1,2,4,60,7,-1,-1
1523946844029288,7,0,-4,-17,-43,-6,2,10
1523946844029288,-5,4,0,9,-7,-17,-9,-9
1523946844044328,-2,-12,-16,-3,26,8,3,-1
1523946844044328,-4,2,2,-20,-3,-6,-4,-1
1523946844050343,7,-4,6,7,7,-11,-8,-9
1523946844050343,5,1,-2,-3,-20,4,1,22
1523946844065384,-29,9,0,-4,2,-2,-1,-16
1523946844065384,21,11,-21,0,-19,-4,-5,17
1523946844073408,-37,-13,-23,-9,-8,-1,-11,-22
1523946844073408,-2,-18,5,4,-10,3,16,-27
1523946844089448,14,14,-5,-8,4,-6,-5,6
1523946844089448,-14,-10,-5,12,-16,-2,-7,-3
1523946844089448,9,4,-9,-16,18,4,3,4
1523946844089448,-3,-11,-4,10,-27,-15,-10,-1
1523946844104488,-1,5,11,5,10,-2,-4,-1
1523946844104488,1,-3,6,-7,-4,11,6,-3
1523946844110509,10,-4,-2,3,17,-2,1,7
1523946844110509,-8,13,-16,-23,-51,-5,5,4
1523946844125550,8,-10,0,6,7,3,-2,-1
1523946844125550,-12,-8,-2,-1,51,-6,-9,-1
1523946844133566,11,1,2,4,-45,0,8,-1
1523946844133566,-4,3,-9,-4,66,8,-8,-2
1523946844148607,-2,3,0,6,-32,-12,-3,-1
1523946844148607,1,-12,-7,-6,-1,7,3,10
1523946844149608,35,3,12,2,13,1,3,7
1523946844149608,-52,-2,-11,-2,-24,-10,-6,-12
1523946844166653,7,-14,-5,2,3,-10,-8,9
1523946844166653,-6,9,1,-1,-3,0,3,-6
1523946844170665,12,-6,-7,0,-1,-2,-5,-5
1523946844170665,3,11,15,-2,-21,-4,-3,7
1523946844185715,-1,-5,-14,4,26,14,9,11
1523946844185715,-6,-3,5,-3,-13,-2,-3,-26
1523946844193726,-5,-1,7,-3,-3,3,7,7
1523946844193726,8,-12,-18,-6,-13,-11,-8,-7
1523946844208767,-11,-3,-2,-3,10,8,-4,-6
1523946844208767,7,3,8,2,8,4,5,5
1523946844209770,-5,1,-7,3,-40,-6,-6,2
1523946844209770,-2,-2,-8,-10,19,-4,-4,-8
1523946844231826,10,-1,-2,-2,-1,1,3,2
1523946844231826,-5,-3,-10,-5,-15,-6,0,8
1523946844231826,13,-4,8,1,-2,-5,-2,-8
1523946844231826,-17,-13,-9,-2,-2,-3,-1,5
1523946844245864,-1,0,6,-4,-9,-5,-6,-2
1523946844245864,3,-4,-9,-4,28,4,0,1
1523946844252884,-10,-3,-8,3,0,-3,1,-4
1523946844252884,29,8,3,-8,-19,-3,0,10
1523946844268925,-42,-15,-18,2,14,-2,-14,-40
1523946844268925,5,6,17,8,-5,1,12,28
1523946844269928,2,-20,-19,-8,5,-1,-9,-7
1523946844269928,2,21,13,2,2,9,10,-36
1523946844284975,16,4,-4,3,-4,-6,0,18
1523946844284975,2,0,5,-5,-23,-11,-10,-10
1523946844290991,-17,1,-3,-3,-10,-4,-4,-13
1523946844290991,16,-3,-6,-3,21,9,3,16
1523946844306024,-4,-6,0,-2,-59,-10,-2,-9
1523946844306024,-5,0,4,10,55,-13,-2,-7
1523946844313042,2,9,5,25,54,18,2,5
1523946844313042,-6,-7,-11,-7,-11,2,-2,2
1523946844329086,5,4,7,-8,6,9,7,4
1523946844329086,-2,-10,-11,-13,-37,-7,-7,5
1523946844330087,18,1,-2,-5,-4,-14,-11,-24
1523946844330087,-45,-19,0,1,2,-7,0,-15
1523946844345128,26,47,4,0,0,2,-2,13
1523946844345128,3,15,2,4,-18,2,1,-3
1523946844351144,-11,-7,-2,0,18,3,4,4
1523946844351144,13,-7,-3,8,-18,3,-4,-2
1523946844366185,6,-3,-2,8,19,-2,4,3
1523946844366185,-13,-6,13,4,-14,-2,-3,-6
1523946844373204,2,4,1,-1,9,9,4,0
1523946844373204,21,10,5,5,2,2,1,17
1523946844389246,-23,-16,-11,-11,-2,-4,4,-5
1523946844389246,-41,-15,-16,-4,-9,0,-8,-26
1523946844390247,35,9,13,-1,4,2,2,16
1523946844390247,-65,7,-12,3,19,-5,-2,-17
1523946844405288,-10,0,13,-4,-7,-12,-9,-9
1523946844405288,8,-10,3,-3,7,17,3,5
1523946844411304,-12,21,12,0,-26,-2,10,-2
1523946844411304,9,-8,3,5,15,-1,-7,10
1523946844426345,10,-9,-8,9,8,-10,-6,-17
1523946844426345,9,12,-3,-16,-29,3,5,14
1523946844433362,-17,-8,-2,3,1,-5,-8,4
1523946844433362,16,1,4,4,3,-1,1,-2
1523946844449406,13,0,14,12,17,13,20,-9
1523946844449406,10,2,11,8,-2,-6,-3,-2
1523946844449406,15,11,-5,0,9,7,4,11
1523946844449406,-32,11,-15,-12,-32,-11,-8,-6
1523946844464446,18,16,29,-2,-19,-2,2,14
1523946844464446,9,-31,-42,-2,13,2,0,1
1523946844470459,-24,14,5,-7,-8,-10,-4,-21
1523946844470459,17,-20,0,10,43,7,6,14
1523946844485502,-7,-9,-7,3,4,-1,-6,1
1523946844485502,27,16,12,-12,-54,4,7,14
1523946844493523,-3,-5,-12,-2,3,-11,-4,0
1523946844493523,44,7,10,6,-9,-2,0,14
1523946844508562,-73,-15,-20,-18,-8,2,-8,-33
1523946844508562,43,5,22,18,35,8,8,26
1523946844509564,-38,-15,-14,-9,-16,-3,-7,-21
1523946844509564,-11,7,2,1,-4,2,0,-17
1523946844531624,-4,-15,-5,-3,1,-3,1,19
1523946844531624,1,8,-6,-14,-6,-7,-10,-14
1523946844532627,-1,-7,0,2,-13,2,3,0
1523946844532627,27,-9,-6,0,24,-5,-2,9
1523946844545662,0,-6,-11,1,-38,-14,-18,-17
1523946844545662,-24,15,5,6,16,1,-6,-15
1523946844553682,4,5,-17,-10,-6,-2,-6,-7
1523946844553682,11,-16,-13,-12,-21,-1,1,7
1523946844568723,-48,-15,-24,0,2,-9,-12,-48
1523946844568723,82,3,5,0,5,6,8,62
1523946844575741,-92,-17,-11,-7,-19,-10,-7,-48
1523946844575741,14,35,19,10,0,-5,-4,-9
1523946844584765,18,-9,-17,-29,-26,-6,5,13
1523946844584765,-14,-16,-5,14,23,2,-8,-16
1523946844590784,26,-7,-8,-4,13,2,4,22
1523946844590784,-9,-6,-8,-15,-27,-3,-3,-2
1523946844605821,8,0,4,6,0,2,2,16
1523946844605821,-28,-7,-10,-1,18,0,2,-13
1523946844612839,22,3,0,3,-10,1,0,18
1523946844612839,-29,-11,-16,-6,5,-7,-6,-28
1523946844627880,26,6,18,3,-4,11,8,36
1523946844627880,-11,22,-12,8,-17,-9,-3,-16
1523946844635904,11,8,3,2,14,7,-2,-8
1523946844635904,4,-13,3,-3,-2,0,2,-1
1523946844644924,5,0,2,16,16,-6,-7,0
1523946844644924,-16,-5,0,-4,40,15,2,-11
1523946844650943,6,-4,1,-36,-89,-24,-11,6
1523946844650943,-1,1,-6,17,-1,-5,-3,0
1523946844665981,9,0,3,1,24,19,0,6
1523946844665981,-16,-7,-13,-5,7,-11,-7,-20
1523946844673003,-16,-2,-1,3,35,8,3,4
1523946844673003,18,-1,1,-9,-26,-1,-1,17
1523946844688041,-14,7,-14,-9,1,-10,-2,-11
1523946844688041,13,-13,7,6,-23,-5,-5,7
1523946844696061,-34,-64,-37,-1,5,-5,-11,-26
1523946844696061,19,11,6,5,-6,0,8,20
1523946844705086,-5,1,1,8,11,4,-5,0
1523946844705086,-13,-1,-2,-7,-4,-2,0,-14
1523946844711103,0,4,3,-3,0,-10,2,-1
1523946844711103,-3,-1,6,2,8,7,-6,-1
1523946844726148,11,-2,-4,-10,7,4,6,5
1523946844726148,-12,-4,-3,-2,-59,-18,-10,-9
1523946844733159,16,9,12,14,44,0,0,11
1523946844733159,-10,-4,-15,-3,17,16,7,-3
1523946844748200,37,11,11,3,-3,-1,9,14
1523946844748200,-59,-6,-5,-1,-14,-3,-5,-38
1523946844756224,22,5,4,8,19,12,23,52
1523946844756224,13,12,18,-8,-17,-5,-11,-10
1523946844771260,-24,-16,-12,-4,-14,1,1,-4
1523946844771260,26,-13,3,1,29,2,4,6
1523946844772263,9,3,-1,5,-17,-3,-5,-8
1523946844772263,-4,0,14,6,7,1,-1,10
1523946844786307,1,-1,-10,-15,-13,-6,-2,-2
1523946844786307,-12,-8,-2,4,-6,-7,-7,17
1523946844793327,80,56,34,3,15,13,11,11
1523946844793327,-25,47,-14,5,-5,7,21,-6
1523946844808366,19,7,-12,10,6,-8,-6,5
1523946844808366,-60,-42,-11,2,-9,-4,-12,-37
1523946844815378,19,17,24,12,3,6,-1,2
1523946844815378,-9,-35,-33,-5,4,-1,-4,4
1523946844831420,-8,-2,-1,-20,-8,-1,0,-6
1523946844831420,24,21,14,2,11,-9,3,20
1523946844832423,-32,-24,-18,-22,-14,-4,-8,-13
1523946844832423,-3,-13,4,-9,-8,-6,-2,-9
1523946844845461,-4,-6,-5,-10,-8,-3,1,-1
1523946844845461,14,4,3,-4,-7,4,4,11
1523946844853479,-21,-21,-25,-1,12,-7,-14,-17
1523946844853479,1,-1,2,-2,18,6,-2,-22
1523946844868519,39,6,18,13,13,7,11,38
1523946844868519,-46,11,-26,-25,-43,-6,-4,-21
1523946844875538,20,-13,-2,16,8,-2,3,12
1523946844875538,-44,12,-2,-10,1,-11,-26,-71
1523946844891589,59,32,1,9,-12,5,14,31
1523946844891589,40,-6,-2,5,13,4,5,16
1523946844892586,-11,-6,-4,-4,-4,1,-4,-4
1523946844892586,-1,2,3,14,1,-11,-4,12
1523946844905630,-18,-9,-8,-2,-2,0,-5,-6
1523946844905630,-16,10,-2,-3,-6,1,5,-14
1523946844913639,10,8,4,-5,11,6,1,7
1523946844913639,47,-3,6,2,-30,-6,13,52
1523946844928679,-67,-27,5,7,24,8,2,-28
1523946844928679,48,19,7,3,8,0,-1,24
1523946844935699,-22,-10,-12,-3,-3,-6,-6,-29
1523946844935699,15,-5,2,-3,3,15,5,21
1523946844951741,7,11,8,20,-10,-11,-2,1
